Data Set 3:Time(s),Data Set 3:Potential(mV),Data Set 3:EKG(mV)
0,-0.0479278564453125,-0.0022109983882918718
0.0050000000000000001,-0.0467071533203125,-0.0094670870217223729
0.01,0.0498809814453125,-0.015508054197135917
0.014999999999999999,0.0613250732421875,-0.010340867713003027
0.02,0.0511016845703125,0.0044251739309631357
0.025000000000000001,0.0930633544921875,0.022707770906962195
0.029999999999999999,0.1489105224609375,0.045322458308285116
0.035000000000000003,0.0980987548828125,0.070639085705965332
0.040000000000000001,0.0015869140625,0.086048942226946909
0.044999999999999998,-0.05303955078125,0.079974403842236169
0.050000000000000003,-0.0593719482421875,0.054670070166583887
0.055,-0.04541015625,0.022117441447408966
0.059999999999999998,-0.06829833984375,-0.0080529745825730949
0.065000000000000002,-0.0911102294921875,-0.034004543880100206
0.070000000000000007,-0.0606689453125,-0.054848731108112905
0.074999999999999997,-0.10888671875,-0.069802829419920567
0.080000000000000002,-0.1330718994140625,-0.083260812143132301
0.085000000000000006,-0.088592529296875,-0.095903494147412144
0.089999999999999997,-0.0796661376953125,-0.10241237090275665
0.095000000000000001,-0.058074951171875,-0.10083196741394367
0.10000000000000001,-0.003448486328125,-0.090640895871307303
0.105,0.067657470703125,-0.068779201579695221
0.11,0.0638427734375,-0.036307299341301398
0.115,0.0155487060546875,-0.0039087206057952725
0.12,0.028289794921875,0.018431383257591354
0.125,0.020660400390625,0.030297937793150955
0.13,0.0041046142578125,0.033943876124156606
0.13500000000000001,0.0002899169921875,0.030818606909463538
0.14000000000000001,0.016845703125,0.024587914448016737
0.14499999999999999,0.0625457763671875,0.021439413492115079
0.14999999999999999,0.0854339599609375,0.02642383100217445
0.155,0.060028076171875,0.037536310532769235
0.16,0.028289794921875,0.046859781770126577
0.16500000000000001,-0.0593719482421875,0.04543866110802329
0.17000000000000001,-0.105072021484375,0.02733509487687805
0.17500000000000002,-0.135589599609375,-0.0053007802238341228
0.17999999999999999,-0.1190338134765625,-0.043221755970484763
0.185,-0.10888671875,-0.076156787706367232
0.19,-0.107666015625,-0.098805992683889371
0.19500000000000001,-0.1063690185546875,-0.11157654457745726
0.20000000000000001,-0.1381072998046875,-0.11842030495685729
0.20500000000000002,-0.167327880859375,-0.12530279021345347
0.20999999999999999,-0.190216064453125,-0.13615032843723202
0.215,-0.1648101806640625,-0.14923398745629882
0.22,-0.13177490234375,-0.15819096480062697
0.22500000000000001,-0.097442626953125,-0.15766180079354869
0.23000000000000001,-0.064483642578125,-0.14635282780940226
0.23500000000000001,-0.03778076171875,-0.12597244963211737
0.23999999999999999,-0.017486572265625,-0.099971008756556207
0.245,-0.049224853515625,-0.074362910789526296
0.25,-0.0758514404296875,-0.05689406763319952
0.255,-0.0326690673828125,-0.048580414753765164
0.26000000000000001,0.060028076171875,-0.039271376426057464
0.26500000000000001,0.028289794921875,-0.022110057069315472
0.27000000000000002,-0.0428924560546875,-0.006189387617626059
0.27500000000000002,-0.03778076171875,-0.0016125451278586507
0.28000000000000003,0.0155487060546875,-0.0038112452413081623
0.28500000000000003,-0.0606689453125,-0.0072963971581472484
0.28999999999999998,-0.1216278076171875,-0.018155209396903238
0.29499999999999998,-0.0898895263671875,-0.038312929549261604
0.29999999999999999,-0.1419219970703125,-0.061608524173213747
0.30499999999999999,-0.13177490234375,-0.085017148224461755
0.31,-0.1101837158203125,-0.10462993724893227
0.315,-0.111480712890625,-0.11635644330875375
0.32000000000000001,-0.0771484375,-0.11958033502010409
0.32500000000000001,-0.0428924560546875,-0.11333956439704798
0.33000000000000002,0.0015869140625,-0.096799245451612059
0.33500000000000002,0.075286865234375,-0.069161592766711272
0.34000000000000002,0.1209869384765625,-0.030206071086697588
0.34500000000000003,0.142578125,0.015739768772381757
0.35000000000000003,0.112060546875,0.059337751635791469
0.35499999999999998,0.107025146484375,0.09168410212951103
0.35999999999999999,0.11968994140625,0.11123981512731529
0.36499999999999999,0.1794281005859375,0.12458841142370913
0.37,0.2899017333984375,0.14361334800992184
0.375,0.2734222412109375,0.17410765557095031
0.38,0.2772369384765625,0.20836757996548189
0.38500000000000001,0.2696075439453125,0.23739736391962799
0.39000000000000001,0.3242340087890625,0.26049019649738064
0.39500000000000002,0.3318634033203125,0.28144194233788244
0.40000000000000002,0.263275146484375,0.29753434116171884
0.40500000000000003,0.2035369873046875,0.29953529722820638
0.41000000000000003,0.2429046630859375,0.28737702253382302
0.41500000000000004,0.1920928955078125,0.26903093368298181
0.41999999999999998,0.2213134765625,0.24950297774697866
0.42499999999999999,0.204833984375,0.23258893335624425
0.42999999999999999,0.154022216796875,0.2175650463561708
0.435,0.082916259765625,0.19751452639667558
0.44,0.0892486572265625,0.17007930793594436
0.44500000000000001,0.0816192626953125,0.14102679481463479
0.45000000000000001,0.0066986083984375,0.11267184020306495
0.45500000000000002,-0.0161895751953125,0.081571933552907469
0.46000000000000002,-0.0467071533203125,0.047885002871606575
0.46500000000000002,-0.0606689453125,0.014626279861350851
0.47000000000000003,-0.050445556640625,-0.014509078846669505
0.47500000000000003,-0.049224853515625,-0.035884772829185972
0.47999999999999998,-0.0517425537109375,-0.049031667839572704
0.48499999999999999,-0.0352630615234375,-0.055121329169890258
0.48999999999999999,-0.0276336669921875,-0.054860179394337356
0.495,-0.050445556640625,-0.051112021708907718
0.5,-0.002227783203125,-0.04586892459340991
0.505,0.048583984375,-0.035117661655763521
0.51000000000000001,0.08673095703125,-0.014969077712016957
0.51500000000000001,0.178131103515625,0.016163330812741537
0.52000000000000002,0.2187957763671875,0.059021572413987262
0.52500000000000002,0.154022216796875,0.10471841225370952
0.53000000000000003,0.0434722900390625,0.13417882439217121
0.53500000000000003,-0.011077880859375,0.13451336168467407
0.54000000000000004,0.0181427001953125,0.11167684141899743
0.54500000000000004,0.0434722900390625,0.083006468892670451
0.55000000000000004,0.005401611328125,0.058686128537680071
0.55500000000000005,0.0460662841796875,0.040524847983510755
0.56000000000000005,0.0955810546875,0.0330237246685815
0.56500000000000006,0.0892486572265625,0.038301779400852609
0.57000000000000006,0.0651397705078125,0.049478614963070142
0.57500000000000007,0.091766357421875,0.060205947607303169
0.57999999999999996,0.1412811279296875,0.07236140854851518
0.58499999999999996,0.1133575439453125,0.087484805563894513
0.58999999999999997,0.068878173828125,0.098933153221549858
0.59499999999999997,0.0791015625,0.10154116609279412
0.59999999999999998,0.0638427734375,0.097507562549576515
0.60499999999999998,0.067657470703125,0.090191611708110589
0.60999999999999999,0.0625457763671875,0.08202358489384895
0.61499999999999999,0.021881103515625,0.072772140751268782
0.62,-0.00604248046875,0.059419155667728582
0.625,0.0193634033203125,0.043232725681448959
0.63,0.1374664306640625,0.035143788197268724
0.63500000000000001,0.1920928955078125,0.047118573105378495
0.64000000000000001,0.146392822265625,0.075131381860332344
0.64500000000000002,0.0498809814453125,0.099714060261714366
0.65000000000000002,0.067657470703125,0.10788089002932556
0.65500000000000003,0.03973388671875,0.10236689483440134
0.66000000000000003,0.0536956787109375,0.090029798257105539
0.66500000000000004,0.08673095703125,0.078137523836558892
0.67000000000000004,0.0422515869140625,0.07029858956483194
0.67500000000000004,0.060028076171875,0.064139845644666127
0.68000000000000005,0.091766357421875,0.060996249301571534
0.68500000000000005,0.084136962890625,0.063312010475917876
0.69000000000000006,0.084136962890625,0.06864565821214548
0.69500000000000006,0.129913330078125,0.076239124955880588
0.70000000000000007,0.11846923828125,0.087238353166697508
0.70499999999999996,0.060028076171875,0.096242796699373384
0.70999999999999996,0.0143280029296875,0.094576460327240708
0.71499999999999997,-0.003448486328125,0.080237077138369639
0.71999999999999997,-0.0618896484375,0.055866594964066714
0.72499999999999998,-0.1254425048828125,0.021915851068850654
0.72999999999999998,-0.1342926025390625,-0.019449629453443352
0.73499999999999999,-0.1622161865234375,-0.061865226494192009
0.73999999999999999,-0.1342926025390625,-0.098666888179499937
0.745,-0.111480712890625,-0.12357612103499949
0.75,-0.0860748291015625,-0.13347518904981776
0.755,-0.00726318359375,-0.1271333117092131
0.76000000000000001,0.0816192626953125,-0.10143041452908694
0.76500000000000001,0.115875244140625,-0.057531786497213203
0.77000000000000002,0.076507568359375,-0.0073399807425221716
0.77500000000000002,0.0231781005859375,0.032173035075593999
0.78000000000000003,0.0155487060546875,0.05205443636809462
0.78500000000000003,0.0321044921875,0.056211758280504877
0.79000000000000004,0.044769287109375,0.053628435120958669
0.79500000000000004,0.02569580078125,0.049259027217843476
0.80000000000000004,0.0079193115234375,0.042821875359226255
0.80500000000000005,-0.0009307861328125,0.033627323163381628
0.81000000000000005,-0.02130126953125,0.022196962287501888
0.81500000000000006,-0.00726318359375,0.01013609295710674
0.82000000000000006,0.0460662841796875,0.002806352150060443
0.82500000000000007,0.0511016845703125,0.0049562380585440793
0.83000000000000007,0.0117340087890625,0.01248027475862731
0.83499999999999996,-0.0250396728515625,0.016162647329298778
0.83999999999999997,-0.017486572265625,0.01241560844520169
0.84499999999999997,-0.02130126953125,0.004530585937087498
0.84999999999999998,-0.0288543701171875,-0.0042865040819697843
0.85499999999999998,-0.0364837646484375,-0.013159816162388016
0.85999999999999999,-0.017486572265625,-0.020599390292664926
0.86499999999999999,-0.0352630615234375,-0.025380300472643808
0.87,-0.056854248046875,-0.029731227771245986
0.875,-0.0708160400390625,-0.036524044555469801
0.88,-0.0517425537109375,-0.044668664249727326
0.88500000000000001,-0.05426025390625,-0.050975653301164277
0.89000000000000001,-0.0301513671875,-0.053455273439027395
0.89500000000000002,-0.0428924560546875,-0.05207453198257956
0.90000000000000002,-0.06951904296875,-0.050341686647678359
0.90500000000000003,-0.06829833984375,-0.051743550459749266
0.91000000000000003,-0.058074951171875,-0.055072503199725259
0.91500000000000004,-0.04541015625,-0.05715112976701342
0.92000000000000004,-0.0618896484375,-0.057351373167823308
0.92500000000000004,-0.0898895263671875,-0.05881874674420471
0.93000000000000005,-0.0872955322265625,-0.063862472799839878
0.93500000000000005,-0.08477783203125,-0.070670595612043322
0.94000000000000006,-0.0746307373046875,-0.07627012495928942
0.94500000000000006,-0.0758514404296875,-0.079245947388331781
0.95000000000000007,-0.080963134765625,-0.080262612818343806
0.95500000000000007,-0.080963134765625,-0.080656075005853894
0.95999999999999996,-0.080963134765625,-0.080906245404830046
0.96499999999999997,-0.0796661376953125,-0.080979947091207732
0.96999999999999997,-0.06829833984375,-0.080309176713751318
0.97499999999999998,-0.0301513671875,-0.0765275858435919
0.97999999999999998,-0.018707275390625,-0.06734193102908817
0.98499999999999999,-0.0123748779296875,-0.054085708020719714
0.98999999999999999,-0.002227783203125,-0.039693373430919721
0.995,0.0193634033203125,-0.025173689804752042
1,0.037139892578125,-0.0099904051126785236
1.0050000000000001,0.04095458984375,0.0055296597377501328
1.01,0.0651397705078125,0.020639208121638462
1.0150000000000001,0.07269287109375,0.035514565637337563
1.02,0.0701751708984375,0.04922627322597721
1.0249999999999999,0.068878173828125,0.059891813652261039
1.03,0.060028076171875,0.066447046765766904
1.0349999999999999,0.0269927978515625,0.067370809936529302
1.04,0.016845703125,0.061430159274327725
1.0449999999999999,0.02569580078125,0.051157804070849973
1.05,0.0066986083984375,0.040122656017145063
1.0549999999999999,0.00921630859375,0.029520309731628308
1.0600000000000001,0.0333251953125,0.021555345780018862
1.0649999999999999,0.0549163818359375,0.019693790469642175
1.0700000000000001,0.0651397705078125,0.024753364243501469
1.075,0.0511016845703125,0.033574889799625585
1.0800000000000001,0.035919189453125,0.041094800872073761
1.085,0.0308074951171875,0.044302728222127781
1.0900000000000001,0.020660400390625,0.043157896363523504
1.095,-0.00726318359375,0.037623392434276898
1.1000000000000001,-0.03778076171875,0.026498995482704936
1.105,-0.0517425537109375,0.0099302650282835393
1.1100000000000001,-0.0618896484375,-0.0094227735795975858
1.115,-0.08477783203125,-0.02921017013406637
1.1200000000000001,-0.1063690185546875,-0.049135766615882689
1.125,-0.0936279296875,-0.067912701272256279
1.1300000000000001,-0.0924072265625,-0.082424042981032147
1.135,-0.0911102294921875,-0.09139954783170634
1.1400000000000001,-0.0784454345703125,-0.095236006846270829
1.145,-0.0746307373046875,-0.094432777861749223
1.1500000000000001,-0.064483642578125,-0.090091599847336973
1.155,-0.03778076171875,-0.082467442259480106
1.1599999999999999,-0.014892578125,-0.070647858706914216
1.165,0.00921630859375,-0.054490163364062427
1.1699999999999999,0.021881103515625,-0.035315970221360862
1.175,0.0308074951171875,-0.015503910333223642
1.1799999999999999,0.0193634033203125,0.0018458904192731017
1.1850000000000001,0.021881103515625,0.014255275121047266
1.1899999999999999,0.0028839111328125,0.02077301443249437
1.1950000000000001,-0.0238189697265625,0.020322014796906169
1.2,-0.0009307861328125,0.01424272017912667
1.2050000000000001,0.0269927978515625,0.0086852160257262258
1.21,0.0422515869140625,0.0087459646281667185
1.2150000000000001,0.0269927978515625,0.013550709605036369
1.22,0.0269927978515625,0.019098088437447789
1.2250000000000001,-0.013671875,0.021407211280664223
1.23,-0.033966064453125,0.017009547397234676
1.2350000000000001,-0.02130126953125,0.0069607924786910351
1.24,0.005401611328125,-0.0025488253624277556
1.2450000000000001,0.0269927978515625,-0.005994511571611104
1.25,0.0308074951171875,-0.0024221475796689573
1.2550000000000001,0.029510498046875,0.0052307462780060423
1.26,0.0434722900390625,0.01417872337849586
1.2650000000000001,0.0181427001953125,0.022172325843245997
1.27,-0.00604248046875,0.025412895441091342
1.2750000000000001,0.005401611328125,0.022845917065805559
1.28,0.0333251953125,0.019124725320562641
1.2849999999999999,0.037139892578125,0.018802784377601404
1.29,0.037139892578125,0.021852166408767262
1.2949999999999999,0.0384368896484375,0.026232724052230816
1.3,0.0041046142578125,0.028995493969241285
1.3049999999999999,0.0002899169921875,0.027169044350382782
1.3100000000000001,0.005401611328125,0.021722634273011472
1.3149999999999999,0.0143280029296875,0.016208329205515931
1.3200000000000001,0.0002899169921875,0.012089962402025312
1.325,-0.00604248046875,0.0082425470683359335
1.3300000000000001,0.0308074951171875,0.0057064455599142713
1.335,0.021881103515625,0.0069792400936315689
1.3400000000000001,-0.0085601806640625,0.0093624945111307079
1.345,-0.0326690673828125,0.0075195118878567252
1.3500000000000001,-0.0517425537109375,-0.00057048376628081234
1.355,-0.0301513671875,-0.012115947201453793
1.3600000000000001,-0.02130126953125,-0.021709942495216322
1.365,-0.0085601806640625,-0.026173477066876411
1.3700000000000001,0.0028839111328125,-0.025178398387186232
1.375,0.0041046142578125,-0.019982370222217778
1.3800000000000001,0.0041046142578125,-0.013038509216480487
1.385,-0.00604248046875,-0.0069281644485248602
1.3900000000000001,0.013031005859375,-0.0024115912634401259
1.395,0.0498809814453125,0.0034793555207570876
1.4000000000000001,0.07269287109375,0.014291355531652708
1.405,0.0346221923828125,0.027576875482815344
1.4099999999999999,0.0181427001953125,0.036406949775982189
1.415,0.0105133056640625,0.037787708334377425
1.4199999999999999,0.0143280029296875,0.033961849483155969
1.425,0.0143280029296875,0.028281287528794913
1.4299999999999999,0.005401611328125,0.022500966459857691
1.4350000000000001,0.02569580078125,0.017850835617903869
1.4399999999999999,-0.0047454833984375,0.014670935057783134
1.4450000000000001,-0.0085601806640625,0.010752495992771484
1.45,-0.017486572265625,0.0050258337286199477
1.4550000000000001,-0.013671875,-0.0013569908931393929
1.46,-0.03778076171875,-0.0080567385859484988
1.4650000000000001,-0.0898895263671875,-0.018128332325182819
1.47,-0.159698486328125,-0.037140100087744127
1.4750000000000001,-0.21051025390625,-0.068229302280941193
1.48,-0.21051025390625,-0.1074300207672249
1.4850000000000001,-0.191436767578125,-0.14485062718978617
1.49,-0.143218994140625,-0.17050647130235569
1.4950000000000001,-0.041595458984375,-0.17562534337873709
1.5,0.084136962890625,-0.15229852050999759
1.5050000000000001,0.18194580078125,-0.09848548910543406
1.51,0.1997222900390625,-0.023964415143518936
1.5150000000000001,0.154022216796875,0.051033956000658104
1.52,0.11083984375,0.1070393550082076
1.5250000000000001,0.1045074462890625,0.13698474494950433
1.53,0.1133575439453125,0.14641970477374899
1.5350000000000001,0.0942840576171875,0.1436708999824538
1.54,0.07147216796875,0.1330333287142087
1.5449999999999999,0.052398681640625,0.11661439113569963
1.55,0.0701751708984375,0.098389766886435276
1.5549999999999999,0.0663604736328125,0.083224272685160389
1.5600000000000001,0.048583984375,0.072009784666696552
1.5649999999999999,0.0193634033203125,0.061643728115382865
1.5700000000000001,0.0015869140625,0.049271640926067978
1.575,-0.009857177734375,0.03467989242264722
1.5800000000000001,-0.009857177734375,0.019813127298902854
1.585,-0.0047454833984375,0.0072623033952249547
1.5900000000000001,0.0015869140625,-0.0010697955286279922
1.595,0.0143280029296875,-0.0043817440531883876
1.6000000000000001,0.00921630859375,-0.003381724548039867
1.605,-0.0288543701171875,-0.0020856801756824633
1.6100000000000001,-0.0288543701171875,-0.0046315523042376409
1.615,-0.00604248046875,-0.0093010587427862657
1.6200000000000001,-0.0085601806640625,-0.012164782424657107
1.625,-0.0276336669921875,-0.013671797924623566
1.6300000000000001,-0.056854248046875,-0.017457415077649481
1.635,-0.0364837646484375,-0.024301290354557498
1.6400000000000001,0.0117340087890625,-0.028630544265377363
1.645,0.0041046142578125,-0.025887696524598842
1.6500000000000001,-0.011077880859375,-0.019352771200925677
1.655,-0.0123748779296875,-0.013971309495220864
1.6600000000000001,-0.0161895751953125,-0.011146201761204204
1.665,-0.06951904296875,-0.012971624420484714
1.6699999999999999,-0.1063690185546875,-0.023543698235655438
1.675,-0.10003662109375,-0.042034617964550075
1.6799999999999999,-0.0606689453125,-0.060307649360638517
1.6850000000000001,-0.0670013427734375,-0.071469445480239202
1.6899999999999999,-0.10003662109375,-0.077366318897157185
1.6950000000000001,-0.105072021484375,-0.083158076154975946
1.7,-0.08477783203125,-0.088881752779695289
1.7050000000000001,-0.073333740234375,-0.091347712900125999
1.71,-0.0720367431640625,-0.089704537941881476
1.7150000000000001,-0.058074951171875,-0.085051965728168324
1.72,-0.0276336669921875,-0.077025551920393037
1.7250000000000001,-0.0238189697265625,-0.065192249184562179
1.73,-0.0161895751953125,-0.05156201147338637
1.7350000000000001,0.0002899169921875,-0.037923045897439139
1.74,0.0155487060546875,-0.024220217593414563
1.7450000000000001,0.0498809814453125,-0.0092626561916235618
1.75,0.11968994140625,0.010643869282492859
1.7550000000000001,0.1476898193359375,0.03862738108634272
1.76,0.129913330078125,0.070403255588871769
1.7650000000000001,0.11968994140625,0.097360685574671896
1.77,0.1248016357421875,0.1154464697838134
1.7750000000000001,0.13494873046875,0.12629985453008416
1.78,0.138763427734375,0.13294150998966939
1.7850000000000001,0.11083984375,0.13581811553951181
1.79,0.0955810546875,0.13320794440016806
1.7949999999999999,0.0587310791015625,0.1239850050304877
1.8,0.0587310791015625,0.1091078815791314
1.8049999999999999,0.0472869873046875,0.09196730290521575
1.8100000000000001,0.0663604736328125,0.076700453527736107
1.8149999999999999,0.0663604736328125,0.066404128258893386
1.8200000000000001,0.0079193115234375,0.058636217902436324
1.825,-0.0047454833984375,0.047568961691683113
1.8300000000000001,0.0434722900390625,0.035281133739168691
1.835,0.075286865234375,0.029992611693598886
1.8400000000000001,0.0422515869140625,0.032758033387832834
1.845,0.005401611328125,0.03569394168857136
1.8500000000000001,0.0066986083984375,0.033307886754741577
1.855,0.0155487060546875,0.027572698029104555
1.8600000000000001,0.0422515869140625,0.023356889420055146
1.865,0.0346221923828125,0.023186279204229186
1.8700000000000001,0.0346221923828125,0.025564565864941081
1.875,0.0143280029296875,0.027469407352636997
1.8800000000000001,0.005401611328125,0.026505702034709401
1.885,-0.0428924560546875,0.020321359194919897
1.8900000000000001,-0.0606689453125,0.0070229857229287731
1.895,-0.056854248046875,-0.011012279805455865
1.9000000000000001,-0.0123748779296875,-0.026465399879620648
1.905,-0.0009307861328125,-0.032989325676991692
1.9100000000000001,-0.014892578125,-0.031454218615222664
1.915,-0.017486572265625,-0.027118743890330588
1.9199999999999999,-0.0200042724609375,-0.02320558704879444
1.925,-0.0161895751953125,-0.020398194077489745
1.9299999999999999,-0.017486572265625,-0.018476690837541308
1.9350000000000001,-0.013671875,-0.017113156542770638
1.9399999999999999,-0.02252197265625,-0.016391793427304239
1.9450000000000001,-0.0428924560546875,-0.017699659234679137
1.95,-0.0276336669921875,-0.021347997565805084
1.9550000000000001,-0.0200042724609375,-0.024654129753195891
1.96,-0.017486572265625,-0.025657912506822658
1.9650000000000001,-0.0161895751953125,-0.024700063780170246
1.97,-0.017486572265625,-0.022778230978864823
1.9750000000000001,-0.0402984619140625,-0.021849115845741882
1.98,-0.0200042724609375,-0.022808010869650598
1.9850000000000001,-0.0301513671875,-0.024166552452295691
1.99,-0.026336669921875,-0.025294978358083031
1.9950000000000001,-0.0428924560546875,-0.026981899572282548
2,-0.0631866455078125,-0.030919937922137007
2.0049999999999999,-0.013671875,-0.035590385722169979
2.0100000000000002,0.0105133056640625,-0.035011307134050901
2.0150000000000001,-0.003448486328125,-0.02808576807922843
2.02,-0.017486572265625,-0.020136973976453559
2.0249999999999999,-0.0288543701171875,-0.015615403335266754
2.0300000000000002,-0.00726318359375,-0.014314131800094712
2.0350000000000001,0.0105133056640625,-0.01254903760555023
2.04,-0.00726318359375,-0.009065435827446058
2.0449999999999999,-0.050445556640625,-0.0081916124728584547
2.0499999999999998,-0.0555572509765625,-0.013802588798087528
2.0550000000000002,-0.03778076171875,-0.023211133710141246
2.0600000000000001,-0.02252197265625,-0.030643010062953224
2.0649999999999999,-0.02252197265625,-0.033503460874252398
2.0699999999999998,-0.0238189697265625,-0.032943715034734103
2.0750000000000002,-0.0390777587890625,-0.031628744027342344
2.0800000000000001,-0.02252197265625,-0.030888907406832561
2.085,0.0117340087890625,-0.028164577683985073
2.0899999999999999,0.005401611328125,-0.021334759271140754
2.0950000000000002,-0.0276336669921875,-0.014274035184106654
2.1000000000000001,-0.02252197265625,-0.011506911643853602
2.105,0.0066986083984375,-0.011066398492729574
2.1099999999999999,0.0143280029296875,-0.0085676619496496825
2.1150000000000002,-0.0200042724609375,-0.0050496470684750216
2.1200000000000001,-0.0593719482421875,-0.0063112716694019525
2.125,-0.05303955078125,-0.014614665874832488
2.1299999999999999,-0.033966064453125,-0.025201044109316569
2.1350000000000002,-0.026336669921875,-0.03255287578619144
2.1400000000000001,-0.02130126953125,-0.035141203080389843
2.145,-0.017486572265625,-0.033916643050696908
2.1499999999999999,-0.0161895751953125,-0.030398740394676493
2.1550000000000002,-0.033966064453125,-0.026926509528053429
2.1600000000000001,-0.0428924560546875,-0.026109542362315274
2.165,-0.049224853515625,-0.028684986500492355
2.1699999999999999,-0.026336669921875,-0.032393787702324803
2.1750000000000003,-0.00726318359375,-0.033276097343301114
2.1800000000000002,0.020660400390625,-0.028501666712309248
2.1850000000000001,0.0155487060546875,-0.018605781223424378
2.1899999999999999,0.0181427001953125,-0.0070809541551942589
2.1949999999999998,0.0422515869140625,0.0042340681175790807
2.2000000000000002,0.076507568359375,0.017282304914315604
2.2050000000000001,0.0536956787109375,0.031995616238632167
2.21,0.0181427001953125,0.042648285357461804
2.2149999999999999,0.0117340087890625,0.044709929654741236
2.2200000000000002,0.0079193115234375,0.039758582552388955
2.2250000000000001,-0.0009307861328125,0.031215945562822891
2.23,-0.009857177734375,0.021079105917898463
2.2349999999999999,-0.017486572265625,0.010444930886127853
2.2400000000000002,-0.00604248046875,0.00094068546699323068
2.2450000000000001,0.0117340087890625,-0.004730077944989499
2.25,-0.011077880859375,-0.0063533718849384671
2.2549999999999999,-0.049224853515625,-0.0087309631756026986
2.2600000000000002,-0.10125732421875,-0.018013079255947615
2.2650000000000001,-0.16351318359375,-0.038410589010640706
2.27,-0.229583740234375,-0.071703145314841191
2.2749999999999999,-0.2486572265625,-0.11504203780385659
2.2800000000000002,-0.2206573486328125,-0.15884069413171764
2.2850000000000001,-0.1864013671875,-0.19149965864446844
2.29,-0.0898895263671875,-0.2037489885729929
2.2949999999999999,0.067657470703125,-0.18594752847304144
2.3000000000000003,0.1641693115234375,-0.13321119177683649
2.3050000000000002,0.1794281005859375,-0.056148371647889897
2.3100000000000001,0.1756134033203125,0.024342440809616707
2.3149999999999999,0.1603546142578125,0.091314479202328158
2.3199999999999998,0.154022216796875,0.13740372115387531
2.3250000000000002,0.1553192138671875,0.1634894966769315
2.3300000000000001,0.162872314453125,0.17509976614736772
2.335,0.138763427734375,0.17709291669150171
2.3399999999999999,0.1273193359375,0.17158458873698995
2.3450000000000002,0.084136962890625,0.1592432380058928
2.3500000000000001,0.080322265625,0.14113056124216394
2.355,0.084136962890625,0.12135369784334182
2.3599999999999999,0.0625457763671875,0.10358767500136708
2.3650000000000002,0.02447509765625,0.08651655190741292
2.3700000000000001,0.021881103515625,0.068309031701813988
2.375,0.0651397705078125,0.052902400365302513
2.3799999999999999,0.048583984375,0.044824009775974685
2.3850000000000002,-0.0085601806640625,0.039672360980400515
2.3900000000000001,-0.0200042724609375,0.03034672753292332
2.395,0.0143280029296875,0.018580883727577702
2.3999999999999999,0.0028839111328125,0.0098977792300358365
2.4050000000000002,-0.003448486328125,0.00456888435265051
2.4100000000000001,0.0041046142578125,0.0011092086587281696
2.415,-0.003448486328125,-0.00073644463406241211
2.4199999999999999,0.0028839111328125,-0.0015040419440586735
2.4250000000000003,-0.013671875,-0.0021277321184483946
2.4300000000000002,-0.0402984619140625,-0.0050292632260052145
2.4350000000000001,-0.0288543701171875,-0.011208129491001329
2.4399999999999999,-0.0326690673828125,-0.018207098490535822
2.4449999999999998,-0.018707275390625,-0.023497842355365645
2.4500000000000002,-0.0250396728515625,-0.026152112515066262
2.4550000000000001,-0.0606689453125,-0.028603757314364243
2.46,-0.0670013427734375,-0.034374888215789032
2.4649999999999999,-0.065704345703125,-0.042881711875755305
2.4700000000000002,-0.0606689453125,-0.051104409477393094
2.4750000000000001,-0.0517425537109375,-0.05673385144140769
2.48,-0.0631866455078125,-0.059521176760362796
2.4849999999999999,-0.080963134765625,-0.061860521083135687
2.4900000000000002,-0.0670013427734375,-0.06507184711420809
2.4950000000000001,-0.06951904296875,-0.067767489673758854
2.5,-0.0746307373046875,-0.069536114535892118
2.5049999999999999,-0.0708160400390625,-0.070934251872615262
2.5100000000000002,-0.05426025390625,-0.071012290234416908
2.5150000000000001,-0.0441131591796875,-0.06825510844115007
2.52,-0.05426025390625,-0.063380453724563524
2.5249999999999999,-0.073333740234375,-0.059711904401202574
2.5300000000000002,-0.0402984619140625,-0.058017395072244349
2.5350000000000001,0.005401611328125,-0.053330139564254996
2.54,0.0511016845703125,-0.040187283911392785
2.5449999999999999,0.107025146484375,-0.01640654481712844
2.5500000000000003,0.114654541015625,0.01583772674149847
2.5550000000000002,0.08795166015625,0.048346435218968267
2.5600000000000001,0.142578125,0.07539472673951568
2.5649999999999999,0.1324310302734375,0.098106451404342987
2.5699999999999998,0.08795166015625,0.11402636450650294
2.5750000000000002,0.123504638671875,0.12073651665094708
2.5800000000000001,0.1527252197265625,0.12425532051172419
2.585,0.11968994140625,0.12836740735178576
2.5899999999999999,0.0791015625,0.12844011527214491
2.5950000000000002,0.107025146484375,0.12253214882199498
2.6000000000000001,0.11083984375,0.11565288838231286
2.605,0.114654541015625,0.1113814462252595
2.6099999999999999,0.0980987548828125,0.1089449466375576
2.6150000000000002,0.080322265625,0.10568891560337673
2.6200000000000001,0.0955810546875,0.10093069951126901
2.625,0.0638427734375,0.095435336038080798
2.6299999999999999,0.02569580078125,0.086607317168308245
2.6350000000000002,0.02447509765625,0.072729232739096816
2.6400000000000001,0.0015869140625,0.056000060227453935
2.645,-0.003448486328125,0.038555323568537164
2.6499999999999999,0.005401611328125,0.022865505871150316
2.6550000000000002,-0.00726318359375,0.010933977053961857
2.6600000000000001,-0.0238189697265625,0.00152853548176312
2.665,-0.0009307861328125,-0.0059548587500445355
2.6699999999999999,0.04095458984375,-0.0078318307951535486
2.6750000000000003,0.037139892578125,-0.0018607533433012717
2.6800000000000002,0.0066986083984375,0.0070442434956179863
2.6850000000000001,-0.0364837646484375,0.010772281443753886
2.6899999999999999,-0.0517425537109375,0.0051739151134306549
2.6949999999999998,-0.009857177734375,-0.0054459037465313855
2.7000000000000002,-0.011077880859375,-0.013471421803426115
2.7050000000000001,-0.0123748779296875,-0.01698031594251093
2.71,-0.0238189697265625,-0.018324308165136933
2.7149999999999999,-0.0200042724609375,-0.019295299108627186
2.7200000000000002,-0.0009307861328125,-0.019199753773165976
2.7250000000000001,0.016845703125,-0.015841474621604176
2.73,0.0117340087890625,-0.0092140313354977729
2.7349999999999999,0.0066986083984375,-0.00208557068363
2.7400000000000002,0.0193634033203125,0.0038577554485520523
2.7450000000000001,-0.0085601806640625,0.0077695548229669877
2.75,-0.013671875,0.0077324987006049039
2.7549999999999999,-0.0352630615234375,0.0030043560480206913
2.7600000000000002,-0.02130126953125,-0.0047422591352583188
2.7650000000000001,-0.026336669921875,-0.012484101960577639
2.77,-0.02130126953125,-0.018383226506860622
2.7749999999999999,-0.009857177734375,-0.021527301997196033
2.7800000000000002,-0.011077880859375,-0.021504391159395571
2.7850000000000001,-0.0161895751953125,-0.019748646926752319
2.79,-0.0314483642578125,-0.018696508622450543
2.7949999999999999,-0.0390777587890625,-0.020180160732508952
2.8000000000000003,-0.02252197265625,-0.02328125404236684
2.8050000000000002,-0.0200042724609375,-0.025313903808611767
2.8100000000000001,-0.0200042724609375,-0.025449960434701643
2.8149999999999999,-0.0238189697265625,-0.024687976008201093
2.8199999999999998,-0.018707275390625,-0.023741076908694821
2.8250000000000002,0.0002899169921875,-0.021705943954642613
2.8300000000000001,0.0269927978515625,-0.01629072855138651
2.835,0.0002899169921875,-0.0081041750834348614
2.8399999999999999,-0.018707275390625,-0.0021735122338831982
2.8450000000000002,-0.0161895751953125,-0.0013151480623775219
2.8500000000000001,-0.0200042724609375,-0.0039298554802736241
2.855,-0.0200042724609375,-0.0080059890175173554
2.8599999999999999,-0.0326690673828125,-0.012808940933660824
2.8650000000000002,-0.0390777587890625,-0.018547219823155447
2.8700000000000001,-0.0314483642578125,-0.0245102164411443
2.875,-0.0301513671875,-0.029015293102722967
2.8799999999999999,-0.0352630615234375,-0.031736225997512531
2.8850000000000002,-0.0085601806640625,-0.032257547519229046
2.8900000000000001,0.0028839111328125,-0.028845046308770869
2.895,-0.0200042724609375,-0.022895690246375028
2.8999999999999999,-0.0200042724609375,-0.018380305723284598
2.9050000000000002,0.0066986083984375,-0.01522739839252741
2.9100000000000001,-0.009857177734375,-0.011626415425026664
2.915,-0.002227783203125,-0.0084132294755894944
2.9199999999999999,-0.0047454833984375,-0.0061596659377319268
2.9250000000000003,-0.014892578125,-0.0051423383749562091
2.9300000000000002,-0.0301513671875,-0.0066770004238317655
2.9350000000000001,-0.013671875,-0.010299281257292476
2.9399999999999999,0.0028839111328125,-0.012699579028978083
2.9449999999999998,-0.00604248046875,-0.012180035689952703
2.9500000000000002,-0.018707275390625,-0.010964431268964975
2.9550000000000001,-0.0428924560546875,-0.012326803704837738
2.96,-0.04541015625,-0.017637469719834695
2.9649999999999999,-0.041595458984375,-0.025082011661804897
2.9700000000000002,-0.0161895751953125,-0.03079446848077614
2.9750000000000001,-0.011077880859375,-0.031845131993891648
2.98,-0.0301513671875,-0.029645444257392059
2.9849999999999999,-0.0047454833984375,-0.026605053956976654
2.9900000000000002,0.0143280029296875,-0.021368192176338341
2.9950000000000001,0.0105133056640625,-0.013261593391337614
3,-0.013671875,-0.0058272802632535828
3.0049999999999999,0.0066986083984375,-0.0015631021824413487
3.0100000000000002,0.0321044921875,0.0022908752635566179
3.0150000000000001,0.0066986083984375,0.0073436936300375552
3.02,0.0079193115234375,0.010938028196125819
3.0249999999999999,0.02569580078125,0.012912478809297277
3.0300000000000002,0.028289794921875,0.015542012639838721
3.0350000000000001,0.02569580078125,0.01894823098469086
3.04,-0.0047454833984375,0.020583915394286782
3.0449999999999999,-0.00726318359375,0.0180025670042692
3.0500000000000003,0.0155487060546875,0.013239309477993124
3.0550000000000002,0.028289794921875,0.010858243452290368
3.0600000000000001,0.0105133056640625,0.011495970699082224
3.0649999999999999,0.0066986083984375,0.01227236695243812
3.0700000000000003,-0.0161895751953125,0.010745803728137465
3.0750000000000002,-0.0479278564453125,0.0046164400207278841
3.0800000000000001,-0.120330810546875,-0.0099698430399566378
3.085,-0.230804443359375,-0.039264425808067528
3.0899999999999999,-0.308319091796875,-0.087495747483876396
3.0950000000000002,-0.3070220947265625,-0.14832869373796595
3.1000000000000001,-0.293060302734375,-0.20694608159082487
3.105,-0.234619140625,-0.24961333358025761
3.1099999999999999,-0.0860748291015625,-0.26367415301272262
3.1150000000000002,0.0575103759765625,-0.23804630114177744
3.1200000000000001,0.1362457275390625,-0.17389560204136045
3.125,0.21368408203125,-0.085175822260911277
3.1299999999999999,0.295013427734375,0.013784933389025186
3.1350000000000002,0.298828125,0.11077346257796582
3.1400000000000001,0.263275146484375,0.19135870815360362
3.145,0.21368408203125,0.24361445546637539
3.1499999999999999,0.21246337890625,0.26602291514042581
3.1550000000000002,0.217498779296875,0.26744908345163199
3.1600000000000001,0.154022216796875,0.2557727199832554
3.165,0.1171722412109375,0.23248273767763269
3.1699999999999999,0.082916259765625,0.19987018099022374
3.1750000000000003,0.0791015625,0.16365405722960424
3.1800000000000002,0.076507568359375,0.13029660180089353
3.1850000000000001,0.0460662841796875,0.10268081116347096
3.1899999999999999,0.0231781005859375,0.079000544911141585
3.1950000000000003,0.0155487060546875,0.057757455808870893
3.2000000000000002,0.0333251953125,0.040693201073862727
3.2050000000000001,0.0384368896484375,0.030356944428791815
3.21,0.0321044921875,0.026236480080951658
3.2149999999999999,0.0308074951171875,0.025525085278647244
3.2200000000000002,0.060028076171875,0.027557791824796347
3.2250000000000001,0.013031005859375,0.03103309509563882
3.23,-0.018707275390625,0.030124331937859721
3.2349999999999999,-0.018707275390625,0.02213077502482972
3.2400000000000002,-0.026336669921875,0.010311756758889044
3.2450000000000001,-0.041595458984375,-0.0026155706415383444
3.25,-0.05426025390625,-0.016046572805929422
3.2549999999999999,-0.0618896484375,-0.029471275829366796
3.2600000000000002,-0.0326690673828125,-0.040355825073881038
3.2650000000000001,-0.011077880859375,-0.044642521369417806
3.27,-0.0288543701171875,-0.042373283479463841
3.2749999999999999,-0.0276336669921875,-0.037886262453702135
3.2800000000000002,-0.0123748779296875,-0.033140005583226301
3.2850000000000001,-0.017486572265625,-0.027913734444584663
3.29,-0.0250396728515625,-0.023531921685373346
3.2949999999999999,-0.0428924560546875,-0.022130256582913628
3.3000000000000003,-0.0517425537109375,-0.024856781133294377
3.3050000000000002,-0.0517425537109375,-0.030750604877385401
3.3100000000000001,-0.0834808349609375,-0.038986989344738758
3.3149999999999999,-0.1063690185546875,-0.050839798184016072
3.3200000000000003,-0.10125732421875,-0.065624121807486419
3.3250000000000002,-0.0911102294921875,-0.079238236356636529
3.3300000000000001,-0.0720367431640625,-0.087712739711217388
3.335,-0.049224853515625,-0.088815497001951155
3.3399999999999999,-0.0301513671875,-0.082224754894105634
3.3450000000000002,-0.014892578125,-0.069550369268354853
3.3500000000000001,0.0002899169921875,-0.053234621279987258
3.355,0.0193634033203125,-0.035154104696546978
3.3599999999999999,0.044769287109375,-0.015909796917243719
3.3650000000000002,0.084136962890625,0.005395813752624757
3.3700000000000001,0.0955810546875,0.029115892985999824
3.375,0.1019134521484375,0.052810537292250395
3.3799999999999999,0.123504638671875,0.074228592557317188
3.3850000000000002,0.146392822265625,0.093914858275540691
3.3900000000000001,0.1553192138671875,0.11263633423212899
3.395,0.1362457275390625,0.12842825300354693
3.3999999999999999,0.0892486572265625,0.13634928340701963
3.4050000000000002,0.107025146484375,0.13454171706012477
3.4100000000000001,0.1057281494140625,0.12769528356226292
3.415,0.112060546875,0.12062654756496319
3.4199999999999999,0.1260986328125,0.1159248738013467
3.4250000000000003,0.1095428466796875,0.1140785180063463
3.4300000000000002,0.0638427734375,0.11098902437901097
3.4350000000000001,0.0587310791015625,0.10264222259775596
3.4399999999999999,0.0625457763671875,0.090846153145004424
3.4450000000000003,0.0587310791015625,0.079470554595684625
3.4500000000000002,0.0434722900390625,0.069520961929430802
3.4550000000000001,0.0346221923828125,0.060116586278656972
3.46,0.0181427001953125,0.050435032196792698
3.4649999999999999,0.0308074951171875,0.041059190032984694
3.4700000000000002,0.0346221923828125,0.034148048525065589
3.4750000000000001,0.0028839111328125,0.029196434032020838
3.48,-0.0276336669921875,0.021962106269461778
3.4849999999999999,-0.002227783203125,0.011832255838063764
3.4900000000000002,0.020660400390625,0.0041396656336378911
3.4950000000000001,-0.0250396728515625,0.00024078080986373197
3.5,-0.04541015625,-0.0051731703727654552
3.5049999999999999,0.0066986083984375,-0.011917038166617598
3.5100000000000002,-0.00604248046875,-0.014790302189295709
3.5150000000000001,-0.0301513671875,-0.015113614475706038
3.52,-0.026336669921875,-0.016759332692618499
3.5249999999999999,-0.014892578125,-0.018984038634672653
3.5300000000000002,-0.0123748779296875,-0.019734980985948058
3.5350000000000001,-0.011077880859375,-0.018802477588419984
3.54,-0.02252197265625,-0.017506232126118633
3.5449999999999999,-0.0301513671875,-0.017618284483960592
3.5500000000000003,-0.0123748779296875,-0.018814068765389384
3.5550000000000002,-0.00726318359375,-0.018798214011868101
3.5600000000000001,-0.0288543701171875,-0.017893741503638309
3.5649999999999999,-0.0238189697265625,-0.01824311261799379
3.5700000000000003,-0.002227783203125,-0.018680086704520121
3.5750000000000002,-0.013671875,-0.017383075192771175
3.5800000000000001,-0.0301513671875,-0.016292663742469057
3.585,-0.0326690673828125,-0.017669611280935592
3.5899999999999999,-0.0314483642578125,-0.020942159409845781
3.5950000000000002,-0.0390777587890625,-0.024898590231321099
3.6000000000000001,-0.014892578125,-0.027993190029468054
3.605,0.0143280029296875,-0.026865440642509453
3.6099999999999999,-0.017486572265625,-0.021525150296683802
3.6150000000000002,-0.0364837646484375,-0.017562213657155861
3.6200000000000001,-0.0402984619140625,-0.018404338044982864
3.625,0.0002899169921875,-0.020810172759223963
3.6299999999999999,-0.02252197265625,-0.021024619695797331
3.6350000000000002,-0.0250396728515625,-0.020470182153684999
3.6400000000000001,-0.033966064453125,-0.021336342831495665
3.645,-0.0364837646484375,-0.023797214041984271
3.6499999999999999,-0.0238189697265625,-0.026648118524797308
3.6550000000000002,-0.0047454833984375,-0.027232528823156403
3.6600000000000001,-0.00604248046875,-0.024310204351344247
3.665,-0.0123748779296875,-0.019734369417864432
3.6699999999999999,-0.0161895751953125,-0.016009745335568058
3.6750000000000003,-0.02130126953125,-0.014270945947004855
3.6800000000000002,-0.017486572265625,-0.014301278583825041
3.6850000000000001,-0.014892578125,-0.014960283131729129
3.6899999999999999,-0.013671875,-0.015335248606238409
3.6950000000000003,-0.050445556640625,-0.016965472965762118
3.7000000000000002,-0.0441131591796875,-0.021956662521687573
3.7050000000000001,0.0066986083984375,-0.026447953599739924
3.71,0.044769287109375,-0.023128152350234448
3.7149999999999999,0.0105133056640625,-0.012303067683805678
3.7200000000000002,-0.0123748779296875,-0.0022444998960764982
3.7250000000000001,-0.00726318359375,0.0021247812798428321
3.73,-0.00726318359375,0.0023055006081289897
3.7349999999999999,-0.0390777587890625,-0.00083896568488818339
3.7400000000000002,-0.03778076171875,-0.0079140539316473364
3.7450000000000001,-0.011077880859375,-0.015732869919124082
3.75,-0.0047454833984375,-0.019659014274834966
3.7549999999999999,0.0002899169921875,-0.018897820706629265
3.7600000000000002,-0.00726318359375,-0.015563526958031976
3.7650000000000001,-0.0390777587890625,-0.01351126684559832
3.77,-0.056854248046875,-0.016572051392326682
3.7749999999999999,-0.05426025390625,-0.024570816875033756
3.7800000000000002,-0.03778076171875,-0.033342653507780887
3.7850000000000001,-0.017486572265625,-0.038299722966008011
3.79,0.013031005859375,-0.036425454447198968
3.7949999999999999,0.0511016845703125,-0.026029165555991652
3.8000000000000003,0.005401611328125,-0.010547898754641759
3.8050000000000002,-0.0276336669921875,0.00059334608935202905
3.8100000000000001,-0.0364837646484375,0.0019798006848548919
3.8149999999999999,-0.0250396728515625,-0.0034996907822621975
3.8200000000000003,-0.0276336669921875,-0.010816886701442621
3.8250000000000002,-0.018707275390625,-0.016987270562430899
3.8300000000000001,-0.0390777587890625,-0.021690846182413313
3.835,-0.0618896484375,-0.027325107146511474
3.8399999999999999,-0.0364837646484375,-0.034249831167889572
3.8450000000000002,-0.0314483642578125,-0.039007443798531327
3.8500000000000001,-0.003448486328125,-0.038893047331717057
3.855,-0.014892578125,-0.034115921260634903
3.8599999999999999,0.005401611328125,-0.026755098246294965
3.8650000000000002,0.037139892578125,-0.016673230985664738
3.8700000000000001,0.0321044921875,-0.0034812960314499816
3.875,0.02569580078125,0.009509852780132326
3.8799999999999999,0.0422515869140625,0.019945199273777244
3.8850000000000002,0.075286865234375,0.029953794491355001
3.8900000000000001,0.0460662841796875,0.040369354104127085
3.895,0.02569580078125,0.046951363335935026
3.8999999999999999,-0.0161895751953125,0.045273725634558136
3.9050000000000002,-0.017486572265625,0.03497940662684515
3.9100000000000001,-0.02252197265625,0.020062674663263828
3.915,-0.017486572265625,0.0053330014433378356
3.9199999999999999,-0.014892578125,-0.006234690799248363
3.9250000000000003,-0.00604248046875,-0.013232833849949926
3.9300000000000002,-0.041595458984375,-0.01739618432576432
3.9350000000000001,-0.08477783203125,-0.024261153353634709
3.9399999999999999,-0.1724395751953125,-0.040856316405578096
3.9450000000000003,-0.285430908203125,-0.074467211712129319
3.9500000000000002,-0.31976318359375,-0.12629731923064086
3.9550000000000001,-0.3184661865234375,-0.18584407368535269
3.96,-0.2714691162109375,-0.23749405772918356
3.9650000000000003,-0.1686248779296875,-0.26658914413003998
3.9700000000000002,-0.00604248046875,-0.26006556216604798
3.9750000000000001,0.1273193359375,-0.21133101265992577
3.98,0.22894287109375,-0.12633670550538073
3.9849999999999999,0.255645751953125,-0.022432941487377636
3.9900000000000002,0.216278076171875,0.076933332315679906
3.9950000000000001,0.248016357421875,0.15479602426192335
4,0.2543487548828125,0.20911951762284517
4.0049999999999999,0.2518310546875,0.24377423036127446
4.0099999999999998,0.287384033203125,0.26406081448059016
4.0149999999999997,0.240386962890625,0.27453359072773054
4.0200000000000005,0.1908721923828125,0.27326710228648621
4.0250000000000004,0.173095703125,0.25890426917349768
4.0300000000000002,0.1400604248046875,0.23530252150268835
4.0350000000000001,0.1286163330078125,0.20711617529870652
4.04,0.1006927490234375,0.1780081998851249
4.0449999999999999,0.0613250732421875,0.14889780048641393
4.0499999999999998,0.028289794921875,0.11871352385012604
4.0549999999999997,0.0041046142578125,0.087591159912442984
4.0600000000000005,-0.00726318359375,0.057470550237481363
4.0650000000000004,0.0015869140625,0.031644418569585969
4.0700000000000003,0.02569580078125,0.014100299015049392
4.0750000000000002,0.048583984375,0.0075552586624593517
4.0800000000000001,0.0422515869140625,0.010559245880520545
4.085,0.0269927978515625,0.017472952241785106
4.0899999999999999,0.0193634033203125,0.022981825887942592
4.0949999999999998,0.0066986083984375,0.024791167851035328
4.0999999999999996,-0.003448486328125,0.022458600928830133
4.1050000000000004,0.0002899169921875,0.017171416531606358
4.1100000000000003,-0.03778076171875,0.0095272902634674275
4.1150000000000002,-0.0352630615234375,-0.0010893922809415797
4.1200000000000001,-0.0301513671875,-0.012497112835851344
4.125,-0.0555572509765625,-0.02277309054942225
4.1299999999999999,-0.0936279296875,-0.034460761553752245
4.1349999999999998,-0.080963134765625,-0.048786334712645103
4.1399999999999997,-0.05426025390625,-0.061121719783338892
4.1450000000000005,-0.041595458984375,-0.066569888170548874
4.1500000000000004,-0.049224853515625,-0.065577109886883561
4.1550000000000002,-0.073333740234375,-0.062831641831528132
4.1600000000000001,-0.080963134765625,-0.062659081273147135
4.165,-0.065704345703125,-0.064895936615932723
4.1699999999999999,-0.0708160400390625,-0.067084950027176377
4.1749999999999998,-0.073333740234375,-0.068730355610026495
4.1799999999999997,-0.0746307373046875,-0.070332722689688709
4.1850000000000005,-0.05303955078125,-0.070858013910620049
4.1900000000000004,-0.05426025390625,-0.068880720881051516
4.1950000000000003,-0.0796661376953125,-0.066326095984546918
4.2000000000000002,-0.0746307373046875,-0.066126989558159169
4.2050000000000001,-0.0555572509765625,-0.066950637211291547
4.21,0.0143280029296875,-0.062909289044523448
4.2149999999999999,0.0701751708984375,-0.047316924893156614
4.2199999999999998,0.080322265625,-0.020076147688396759
4.2249999999999996,0.0791015625,0.011323021825457875
4.2300000000000004,0.0778045654296875,0.039268982952097686
4.2350000000000003,0.0904693603515625,0.060768094697803976
4.2400000000000002,0.123504638671875,0.077762039688680173
4.2450000000000001,0.122283935546875,0.092980333731439102
4.25,0.129913330078125,0.10628045976318772
4.2549999999999999,0.131134033203125,0.11688688760363644
4.2599999999999998,0.1324310302734375,0.12473576419073427
4.2649999999999997,0.123504638671875,0.1295443003697154
4.2700000000000005,0.11968994140625,0.1310305270645114
4.2750000000000004,0.123504638671875,0.13002078264606967
4.2800000000000002,0.11846923828125,0.12791350117411188
4.2850000000000001,0.1171722412109375,0.12530685017428539
4.29,0.11083984375,0.12229151853690672
4.2949999999999999,0.1019134521484375,0.11857573033440674
4.2999999999999998,0.076507568359375,0.11291338787450247
4.3049999999999997,0.04095458984375,0.10294261055196176
4.3100000000000005,0.00921630859375,0.086776362695548934
4.3150000000000004,0.02569580078125,0.066738036686707483
4.3200000000000003,0.0422515869140625,0.049313053102259412
4.3250000000000002,0.020660400390625,0.037680411706258125
4.3300000000000001,-0.0009307861328125,0.02881868114192785
4.335,-0.0238189697265625,0.018910954648458392
4.3399999999999999,-0.003448486328125,0.0081489801214971475
4.3449999999999998,0.0079193115234375,0.00030075113635198367
4.3500000000000005,0.005401611328125,-0.0027938352868809098
4.3550000000000004,0.0066986083984375,-0.0026275290144269132
4.3600000000000003,0.0015869140625,-0.0011204559364361947
4.3650000000000002,0.0066986083984375,0.00059194781657947852
4.3700000000000001,0.0155487060546875,0.00273343324914933
4.375,-0.0123748779296875,0.004454972302380864
4.3799999999999999,-0.033966064453125,0.0024882059013973633
4.3849999999999998,-0.017486572265625,-0.0034496096083172609
4.3899999999999997,-0.002227783203125,-0.0090164147065346853
4.3950000000000005,0.0028839111328125,-0.010969654121820011
4.4000000000000004,0.00921630859375,-0.0093176082110515961
4.4050000000000002,-0.0288543701171875,-0.007133493809765276
4.4100000000000001,-0.0517425537109375,-0.0093670164281191536
4.415,-0.0441131591796875,-0.01687709890762441
4.4199999999999999,-0.0390777587890625,-0.025716109167011916
4.4249999999999998,-0.0250396728515625,-0.032113520373576329
4.4299999999999997,-0.0009307861328125,-0.033489943967252481
4.4350000000000005,-0.0200042724609375,-0.030150916119369035
4.4400000000000004,-0.0402984619140625,-0.026692722769681657
4.4450000000000003,-0.017486572265625,-0.025514008913658973
4.4500000000000002,0.0193634033203125,-0.022805420337790691
4.4550000000000001,0.013031005859375,-0.015684088707881731
4.46,-0.014892578125,-0.0078790547719615241
4.4649999999999999,-0.02252197265625,-0.0043984219240395233
4.4699999999999998,-0.02130126953125,-0.0056226213649938099
4.4750000000000005,-0.0364837646484375,-0.0098745439030477975
4.4800000000000004,-0.050445556640625,-0.016819503425142414
4.4850000000000003,-0.02252197265625,-0.024507793358432624
4.4900000000000002,-0.0250396728515625,-0.029326861777679965
4.4950000000000001,-0.033966064453125,-0.031201480077603719
4.5,-0.018707275390625,-0.031517875366769296
4.5049999999999999,-0.0390777587890625,-0.030953220736492842
4.5099999999999998,-0.033966064453125,-0.030999176225532624
4.5149999999999997,0.0028839111328125,-0.030105105190196109
4.5200000000000005,0.020660400390625,-0.024457913321525512
4.5250000000000004,0.028289794921875,-0.013823102544505625
4.5300000000000002,0.0117340087890625,-0.0019375030258260602
4.5350000000000001,-0.013671875,0.0060224752200459973
4.54,-0.00726318359375,0.0077708101491541148
4.5449999999999999,-0.014892578125,0.005208879563736446
4.5499999999999998,-0.0364837646484375,-0.00040445774567393275
4.5549999999999997,-0.0352630615234375,-0.0087704259302725483
4.5600000000000005,0.0015869140625,-0.016129881002232761
4.5650000000000004,-0.0085601806640625,-0.018648179877918163
4.5700000000000003,-0.0314483642578125,-0.018612969139034152
4.5750000000000002,-0.0390777587890625,-0.020260216259190323
4.5800000000000001,-0.0276336669921875,-0.023662806845576451
4.585,-0.002227783203125,-0.025424891646862624
4.5899999999999999,0.00921630859375,-0.022655091476756182
4.5949999999999998,0.0002899169921875,-0.016351456485160933
4.6000000000000005,-0.0009307861328125,-0.0098249881702446792
4.6050000000000004,0.0181427001953125,-0.0040377613829526548
4.6100000000000003,0.0066986083984375,0.0014935353516575766
4.6150000000000002,-0.0238189697265625,0.0042944780756307421
4.6200000000000001,-0.073333740234375,-0.00039205477697807544
4.625,-0.056854248046875,-0.013112240309575734
4.6299999999999999,-0.013671875,-0.026207921775527838
4.6349999999999998,0.0015869140625,-0.031623461709830485
4.6399999999999997,-0.00726318359375,-0.029270858981192721
4.6450000000000005,-0.017486572265625,-0.02411615765724525
4.6500000000000004,-0.02130126953125,-0.020062029098282461
4.6550000000000002,-0.0301513671875,-0.018529124733590703
4.6600000000000001,-0.00604248046875,-0.018399386219216281
4.665,-0.0123748779296875,-0.017459705205186582
4.6699999999999999,-0.02252197265625,-0.01623524846049676
4.6749999999999998,0.00921630859375,-0.014860869440008721
4.6799999999999997,0.0041046142578125,-0.011441994351949331
4.6850000000000005,-0.0238189697265625,-0.0079441310383116144
4.6900000000000004,-0.03778076171875,-0.0085090960979997167
4.6950000000000003,-0.0479278564453125,-0.014012392710086138
4.7000000000000002,-0.041595458984375,-0.022217078500529317
4.7050000000000001,-0.0352630615234375,-0.029828081828314201
4.71,-0.0479278564453125,-0.03545054275249946
4.7149999999999999,-0.0606689453125,-0.040521661279237731
4.7199999999999998,-0.0200042724609375,-0.044269717475802606
4.7250000000000005,-0.0123748779296875,-0.043159399472113585
4.7300000000000004,-0.017486572265625,-0.03752051905943507
4.7350000000000003,-0.013671875,-0.030638649862914362
4.7400000000000002,0.0308074951171875,-0.02224729613637174
4.7450000000000001,0.0511016845703125,-0.0094459791339354601
4.75,0.0536956787109375,0.0072060146701262255
4.7549999999999999,0.0434722900390625,0.023382987953519042
4.7599999999999998,0.0384368896484375,0.03528537545617963
4.7649999999999997,0.013031005859375,0.040780928289517349
4.7700000000000005,0.0143280029296875,0.039594944719773581
4.7750000000000004,0.005401611328125,0.033877601911440687
4.7800000000000002,0.0066986083984375,0.026282771048837788
4.7850000000000001,0.0498809814453125,0.020865977303922707
4.79,0.0498809814453125,0.021563908881493725
4.7949999999999999,-0.017486572265625,0.024024643866287894
4.7999999999999998,-0.0288543701171875,0.020158284269949318
4.8049999999999997,-0.0250396728515625,0.0099129888779744806
4.8100000000000005,-0.065704345703125,-0.0036274033634061771
4.8150000000000004,-0.1139984130859375,-0.022093576557413865
4.8200000000000003,-0.237213134765625,-0.051590634226231821
4.8250000000000002,-0.338836669921875,-0.099354009641954136
4.8300000000000001,-0.3463897705078125,-0.16269605024728631
4.835,-0.3299102783203125,-0.22663626352939648
4.8399999999999999,-0.268951416015625,-0.27508779501954406
4.8449999999999998,-0.1178131103515625,-0.29362438199752039
4.8500000000000005,0.1209869384765625,-0.26625494496545032
4.8550000000000004,0.2848663330078125,-0.18479388198715568
4.8600000000000003,0.298828125,-0.064981215170904688
4.8650000000000002,0.296234130859375,0.060313094216072401
4.8700000000000001,0.26708984375,0.16424340625449757
4.875,0.2746429443359375,0.23602848816203673
4.8799999999999999,0.2810516357421875,0.27840589403701943
4.8849999999999998,0.2200927734375,0.29662804550371152
4.8899999999999997,0.142578125,0.29070333423771055
4.8950000000000005,0.1362457275390625,0.26374012289934962
4.9000000000000004,0.1515045166015625,0.22794914109291484
4.9050000000000002,0.1515045166015625,0.19553666966855404
4.9100000000000001,0.1717987060546875,0.17240689683080651
4.915,0.1590576171875,0.15939518683737819
4.9199999999999999,0.1209869384765625,0.15176507822451862
4.9249999999999998,0.08795166015625,0.14256538532504565
4.9299999999999997,0.048583984375,0.12767102062768915
4.9350000000000005,0.0498809814453125,0.10762801442582801
4.9400000000000004,0.0434722900390625,0.086759242621498617
4.9450000000000003,0.0346221923828125,0.068395478283347355
4.9500000000000002,0.067657470703125,0.055064111970710414
4.9550000000000001,0.0536956787109375,0.04866334066357237
4.96,0.0308074951171875,0.046032175767758837
4.9649999999999999,0.0066986083984375,0.041872455620045892
4.9699999999999998,-0.0441131591796875,0.032104270497302703
4.9750000000000005,-0.0555572509765625,0.015052069818816786
4.9800000000000004,-0.0479278564453125,-0.0054838577014218581
4.9850000000000003,-0.0326690673828125,-0.023063793040391599
4.9900000000000002,-0.0200042724609375,-0.033601920454071198
4.9950000000000001,-0.0326690673828125,-0.037444064074691072
5,-0.0352630615234375,-0.037987976326372908
5.0049999999999999,-0.0390777587890625,-0.037808971341061884
5.0099999999999998,-0.0428924560546875,-0.037955060304560646
5.0149999999999997,-0.0441131591796875,-0.038818326874610842
5.0200000000000005,-0.03778076171875,-0.039871494420385636
5.0250000000000004,-0.0288543701171875,-0.039883992414029332
5.0300000000000002,-0.056854248046875,-0.039558349026456385
5.0350000000000001,-0.0872955322265625,-0.042702384055975283
5.04,-0.0834808349609375,-0.050897017945695011
5.0449999999999999,-0.0911102294921875,-0.061467776542096703
5.0499999999999998,-0.0949249267578125,-0.071960465209444782
5.0549999999999997,-0.097442626953125,-0.081298633066565137
5.0600000000000005,-0.096221923828125,-0.088697805133699542
5.0650000000000004,-0.0758514404296875,-0.092841799246078396
5.0700000000000003,-0.0250396728515625,-0.090340371482632492
5.0750000000000002,-0.0467071533203125,-0.080403981401597713
5.0800000000000001,-0.0708160400390625,-0.069411788019009213
5.085,-0.03778076171875,-0.061628652192278477
5.0899999999999999,0.0155487060546875,-0.052464018562559819
5.0949999999999998,0.0434722900390625,-0.036578560589285977
5.1000000000000005,0.0549163818359375,-0.014754566641983703
5.1050000000000004,0.0955810546875,0.010182924335984885
5.1100000000000003,0.107025146484375,0.036857768096371105
5.1150000000000002,0.1260986328125,0.06327653085514473
5.1200000000000001,0.1324310302734375,0.087274219380445814
5.125,0.0955810546875,0.10541715582804922
5.1299999999999999,0.11968994140625,0.1153371878790629
5.1349999999999998,0.1641693115234375,0.12195890960118211
5.1399999999999997,0.1527252197265625,0.13042467092923718
5.1450000000000005,0.1209869384765625,0.13776708643104646
5.1500000000000004,0.1171722412109375,0.13956994761758112
5.1550000000000002,0.11968994140625,0.13661575548039501
5.1600000000000001,0.1260986328125,0.13221907285216328
5.165,0.0930633544921875,0.12710772141267968
5.1699999999999999,0.0854339599609375,0.11948380344028606
5.1749999999999998,0.0778045654296875,0.10945114472309141
5.1799999999999997,0.0587310791015625,0.098149368884611593
5.1850000000000005,0.0002899169921875,0.083501168424372552
5.1900000000000004,-0.002227783203125,0.06352211433010424
5.1950000000000003,0.0384368896484375,0.043555606683095181
5.2000000000000002,0.0587310791015625,0.031851564214158176
5.2050000000000001,0.060028076171875,0.030179000028229725
5.21,0.0105133056640625,0.032520340781431914
5.2149999999999999,0.0002899169921875,0.031423526311412639
5.2199999999999998,-0.002227783203125,0.025494578814627793
5.2250000000000005,-0.00604248046875,0.017403286997046991
5.2300000000000004,-0.00604248046875,0.0092734875068936438
5.2350000000000003,0.013031005859375,0.0033288341139093014
5.2400000000000002,0.0117340087890625,0.0012557683878596897
5.2450000000000001,0.0105133056640625,0.0021732493223056404
5.25,-0.017486572265625,0.0029280733953925141
5.2549999999999999,-0.02252197265625,0.00059164027073850631
5.2599999999999998,-0.0085601806640625,-0.0039461618809231123
5.2649999999999997,-0.018707275390625,-0.0081415069054391644
5.2700000000000005,-0.0009307861328125,-0.010866335440653237
5.2750000000000004,-0.0047454833984375,-0.011369100624833161
5.2800000000000002,-0.03778076171875,-0.011742127161008994
5.2850000000000001,-0.0467071533203125,-0.015618236330300775
5.29,-0.03778076171875,-0.022437724254542341
5.2949999999999999,-0.0326690673828125,-0.028798818597816096
5.2999999999999998,-0.0276336669921875,-0.032644968419156858
5.3049999999999997,-0.0047454833984375,-0.03278824944330673
5.3100000000000005,-0.014892578125,-0.029208040392591644
5.3150000000000004,-0.0085601806640625,-0.024045428808631589
5.3200000000000003,-0.018707275390625,-0.019409172316720645
5.3250000000000002,-0.0200042724609375,-0.016591214605173425
5.3300000000000001,0.0002899169921875,-0.0148390702131403
5.335,-0.02252197265625,-0.013174195495375692
5.3399999999999999,-0.0441131591796875,-0.014023995724750767
5.3449999999999998,-0.0402984619140625,-0.018822188008415189
5.3500000000000005,-0.033966064453125,-0.025028808512996249
5.3550000000000004,-0.0352630615234375,-0.030082425036702422
5.3600000000000003,-0.0441131591796875,-0.033872262015206517
5.3650000000000002,-0.04541015625,-0.037277436241891337
5.3700000000000001,-0.0085601806640625,-0.038693062122990299
5.375,0.0143280029296875,-0.034473030383837283
5.3799999999999999,-0.0085601806640625,-0.025504195001623948
5.3849999999999998,-0.017486572265625,-0.017322497717618443
5.3899999999999997,-0.0326690673828125,-0.013617520419660672
5.3950000000000005,-0.02252197265625,-0.014142396396418858
5.4000000000000004,0.0066986083984375,-0.015066902342871528
5.4050000000000002,0.0041046142578125,-0.01297292043140319
5.4100000000000001,-0.014892578125,-0.0095485137957279729
5.415,-0.0390777587890625,-0.0090898052277774109
5.4199999999999999,-0.013671875,-0.012110074925282847
5.4249999999999998,-0.0123748779296875,-0.014995861520852714
5.4299999999999997,-0.002227783203125,-0.015523212943712415
5.4350000000000005,-0.0161895751953125,-0.014441388683437726
5.4400000000000004,-0.009857177734375,-0.013295714718966636
5.4450000000000003,-0.0276336669921875,-0.013209941003517058
5.4500000000000002,-0.0301513671875,-0.01512541089444213
5.4550000000000001,0.0079193115234375,-0.016967745131735414
5.46,0.02447509765625,-0.014274009331957303
5.4649999999999999,-0.00604248046875,-0.0079705116860993627
5.4699999999999998,-0.03778076171875,-0.0045709134233459636
5.4750000000000005,-0.0428924560546875,-0.0077987375545934129
5.4800000000000004,-0.0250396728515625,-0.014802574135193982
5.4850000000000003,-0.0238189697265625,-0.020903437747577538
5.4900000000000002,-0.041595458984375,-0.02531828682611123
5.4950000000000001,-0.013671875,-0.028384918032541638
5.5,-0.00726318359375,-0.02817068879591526
5.5049999999999999,-0.011077880859375,-0.024678948009700712
5.5099999999999998,-0.0238189697265625,-0.02086369074045517
5.5149999999999997,-0.0276336669921875,-0.019120839377787652
5.5200000000000005,-0.033966064453125,-0.01995067811215611
5.5250000000000004,-0.017486572265625,-0.021892669493775194
5.5300000000000002,-0.049224853515625,-0.024259092580103517
5.5350000000000001,-0.064483642578125,-0.029269561910559527
5.54,-0.056854248046875,-0.037175854886700263
5.5449999999999999,-0.0467071533203125,-0.044579319431411052
5.5499999999999998,-0.0238189697265625,-0.048025307749669857
5.5549999999999997,-0.0352630615234375,-0.046837168727305714
5.5600000000000005,0.0079193115234375,-0.041597072459613624
5.5650000000000004,0.0422515869140625,-0.030291079839392502
5.5700000000000003,0.0384368896484375,-0.013104347123890608
5.5750000000000002,0.02447509765625,0.0043909551154214278
5.5800000000000001,0.0193634033203125,0.017109700559836793
5.585,0.029510498046875,0.024484720127627684
5.5899999999999999,0.035919189453125,0.028866778488048188
5.5949999999999998,0.0346221923828125,0.031967812825819515
5.6000000000000005,0.0321044921875,0.033926431475820619
5.6050000000000004,0.0384368896484375,0.034961777678828784
5.6100000000000003,0.020660400390625,0.035000039930967022
5.6150000000000002,-0.00726318359375,0.031904700355586402
5.6200000000000001,-0.009857177734375,0.024323333816772999
5.625,-0.0085601806640625,0.014466989037301571
5.6299999999999999,-0.017486572265625,0.0048987553758088852
5.6349999999999998,-0.0746307373046875,-0.0061620938273115253
5.6399999999999997,-0.167327880859375,-0.025876405430173988
5.6450000000000005,-0.2829132080078125,-0.06272966416193114
5.6500000000000004,-0.3883514404296875,-0.12101629869760117
5.6550000000000002,-0.38201904296875,-0.19385680565505434
5.6600000000000001,-0.324798583984375,-0.26205415273187599
5.665,-0.244842529296875,-0.30612366330891305
5.6699999999999999,-0.105072021484375,-0.31373020280003883
5.6749999999999998,0.1006927490234375,-0.27592364603631775
5.6799999999999997,0.279754638671875,-0.18906579877982138
5.6850000000000005,0.357269287109375,-0.064522477283643798
5.6900000000000004,0.3623046875,0.071217910764023312
5.6950000000000003,0.3140869140625,0.18923346012078493
5.7000000000000002,0.287384033203125,0.2713063315550811
5.7050000000000001,0.2772369384765625,0.31540129572201281
5.71,0.2505340576171875,0.32928162814796025
5.7149999999999999,0.1920928955078125,0.32011293202613234
5.7199999999999998,0.154022216796875,0.29292020222815673
5.7250000000000005,0.13494873046875,0.25479240216905485
5.7300000000000004,0.1362457275390625,0.21486599245023705
5.7350000000000003,0.1045074462890625,0.17919814063496534
5.7400000000000002,0.0575103759765625,0.14716987388044911
5.7450000000000001,0.029510498046875,0.11574973822052996
5.75,0.0791015625,0.087962854764550902
5.7549999999999999,0.1057281494140625,0.071602383189457441
5.7599999999999998,0.082916259765625,0.067572549420542832
5.7649999999999997,0.0739898681640625,0.069062522942949192
5.7700000000000005,0.082916259765625,0.071528120474290968
5.7750000000000004,0.0663604736328125,0.073666614284117415
5.7800000000000002,-0.00604248046875,0.070793839470440767
5.7850000000000001,-0.0238189697265625,0.057722599307466073
5.79,-0.003448486328125,0.038007153932452964
5.7949999999999999,-0.00604248046875,0.019601770333109694
5.7999999999999998,-0.00604248046875,0.0059373810612128181
5.8049999999999997,-0.0200042724609375,-0.0036376258267526882
5.8100000000000005,-0.0352630615234375,-0.011426655811745436
5.8150000000000004,-0.0314483642578125,-0.018775967181570638
5.8200000000000003,-0.056854248046875,-0.026076848566552405
5.8250000000000002,-0.041595458984375,-0.033470844341111639
5.8300000000000001,-0.02130126953125,-0.038374222309960807
5.835,-0.049224853515625,-0.039859712065423498
5.8399999999999999,-0.0796661376953125,-0.042434563560395586
5.8449999999999998,-0.065704345703125,-0.048522751550816451
5.8500000000000005,-0.0364837646484375,-0.053983553074129775
5.8550000000000004,-0.0479278564453125,-0.055315989623201008
5.8600000000000003,-0.0949249267578125,-0.056248109601661912
5.8650000000000002,-0.1228485107421875,-0.062963568415697224
5.8700000000000001,-0.1178131103515625,-0.075796257125720329
5.875,-0.0924072265625,-0.088921055991489154
5.8799999999999999,-0.058074951171875,-0.09560749547737013
5.8849999999999998,-0.0606689453125,-0.093673667974196143
5.8899999999999997,-0.0872955322265625,-0.087740985421174811
5.8950000000000005,-0.096221923828125,-0.083924479400410062
5.9000000000000004,-0.0708160400390625,-0.082732878392602349
5.9050000000000002,-0.0288543701171875,-0.079184105271683639
5.9100000000000001,0.0028839111328125,-0.068623193040398933
5.915,0.0231781005859375,-0.050762137434792659
5.9199999999999999,0.048583984375,-0.028098054338356521
5.9249999999999998,0.082916259765625,-0.0023898678591839154
5.9299999999999997,0.1083221435546875,0.025583243905040767
5.9350000000000005,0.131134033203125,0.054488675135778666
5.9400000000000004,0.1450958251953125,0.082439602942602275
5.9450000000000003,0.1679840087890625,0.10815977959000023
5.9500000000000002,0.2226104736328125,0.13331261932530827
5.9550000000000001,0.225128173828125,0.15975710625902739
5.96,0.202239990234375,0.18365354994404504
5.9649999999999999,0.1400604248046875,0.19702323506397931
5.9699999999999998,0.099395751953125,0.19407994222200614
5.9750000000000005,0.10321044921875,0.17721249897667693
5.9800000000000004,0.1083221435546875,0.15532132513440128
5.9850000000000003,0.1083221435546875,0.13564653850740424
5.9900000000000002,0.08795166015625,0.11998841624970918
5.9950000000000001,0.067657470703125,0.10637942652137285
6,0.0892486572265625,0.094473352302001823
6.0049999999999999,0.07269287109375,0.085893912313725479
6.0099999999999998,0.060028076171875,0.079417985891521964
6.0150000000000006,0.0587310791015625,0.0731794971192785
6.0200000000000005,0.021881103515625,0.065805082788383984
6.0250000000000004,0.0155487060546875,0.05548091717668345
6.0300000000000002,0.02447509765625,0.043738702184438254
6.0350000000000001,0.0308074951171875,0.034289412368034233
6.04,0.028289794921875,0.028591356579594045
6.0449999999999999,0.0346221923828125,0.026141607637195537
6.0499999999999998,0.005401611328125,0.024861566788971754
6.0549999999999997,-0.017486572265625,0.020933260685856832
6.0600000000000005,-0.0009307861328125,0.013731388557285576
6.0650000000000004,-0.0364837646484375,0.0050799783312085456
6.0700000000000003,-0.0326690673828125,-0.0050284307207717604
6.0750000000000002,-0.0250396728515625,-0.014924340652989148
6.0800000000000001,-0.0402984619140625,-0.022713697424299184
6.085,-0.0238189697265625,-0.02832532179631219
6.0899999999999999,-0.0364837646484375,-0.031598121250867084
6.0949999999999998,-0.0085601806640625,-0.032236843146861906
6.1000000000000005,0.0105133056640625,-0.028590256913532106
6.1050000000000004,-0.014892578125,-0.021633063439482143
6.1100000000000003,-0.0364837646484375,-0.016791648754753329
6.1150000000000002,-0.0276336669921875,-0.01664000164291507
6.1200000000000001,0.0002899169921875,-0.017714155817745974
6.125,-0.002227783203125,-0.016324507987869379
6.1299999999999999,-0.0238189697265625,-0.013919727204489939
6.1349999999999998,-0.04541015625,-0.014563706174994077
6.1400000000000006,-0.0441131591796875,-0.019516559077945451
6.1450000000000005,-0.0200042724609375,-0.025438821118391783
6.1500000000000004,-0.0161895751953125,-0.028284847500889141
6.1550000000000002,-0.013671875,-0.027512484082360535
6.1600000000000001,-0.018707275390625,-0.024927095486812996
6.165,-0.0276336669921875,-0.022687342135103396
6.1699999999999999,-0.033966064453125,-0.022378869921630767
6.1749999999999998,-0.018707275390625,-0.023369271828317214
6.1799999999999997,-0.0288543701171875,-0.02416811762066353
6.1850000000000005,-0.0161895751953125,-0.024373387269272743
6.1900000000000004,0.0105133056640625,-0.022316603196292268
6.1950000000000003,0.028289794921875,-0.015658830717497119
6.2000000000000002,-0.00604248046875,-0.0066786107567962678
6.2050000000000001,-0.026336669921875,-0.0014970431387206357
6.21,-0.0314483642578125,-0.0028318759034549608
6.2149999999999999,-0.0364837646484375,-0.0087653641240861419
6.2199999999999998,-0.0288543701171875,-0.016214075496850465
6.2250000000000005,-0.0301513671875,-0.02262171171159184
6.2300000000000004,-0.02252197265625,-0.0267507013878832
6.2350000000000003,-0.0288543701171875,-0.02864515615528453
6.2400000000000002,-0.02252197265625,-0.029031228048211476
6.2450000000000001,-0.0161895751953125,-0.028019968203533446
6.25,-0.0123748779296875,-0.025455734888283996
6.2549999999999999,-0.0123748779296875,-0.021956818406354578
6.2599999999999998,-0.0047454833984375,-0.018115922017956455
6.2650000000000006,-0.009857177734375,-0.014347481849126924
6.2700000000000005,-0.0047454833984375,-0.011193910232879398
6.2750000000000004,-0.02130126953125,-0.0094525948397374583
6.2800000000000002,-0.0314483642578125,-0.010486953000643583
6.2850000000000001,-0.014892578125,-0.013631761689571288
6.29,-0.0123748779296875,-0.016058674225848262
6.2949999999999999,-0.0402984619140625,-0.017976810160355527
6.2999999999999998,-0.0479278564453125,-0.022102917438498251
6.3049999999999997,-0.0250396728515625,-0.027489760516889193
6.3100000000000005,-0.0288543701171875,-0.030918820040813113
6.3150000000000004,-0.026336669921875,-0.031932201389166338
6.3200000000000003,-0.0009307861328125,-0.030342193780413321
6.3250000000000002,0.0079193115234375,-0.024896751882990217
6.3300000000000001,-0.018707275390625,-0.01779976374208983
6.335,-0.0390777587890625,-0.014188233388783835
6.3399999999999999,-0.0364837646484375,-0.015945440472767382
6.3449999999999998,-0.018707275390625,-0.019899140184777182
6.3500000000000005,-0.0314483642578125,-0.023031517476653423
6.3550000000000004,-0.026336669921875,-0.025301615138687561
6.3600000000000003,-0.03778076171875,-0.027372820967599385
6.3650000000000002,-0.03778076171875,-0.029784077013877835
6.3700000000000001,-0.0364837646484375,-0.032385735337182378
6.375,-0.064483642578125,-0.035772978285745716
6.3799999999999999,-0.0606689453125,-0.04126910086411642
6.3849999999999998,-0.017486572265625,-0.045735858516355643
6.3900000000000006,-0.002227783203125,-0.044008067910153451
6.3950000000000005,0.0117340087890625,-0.035508552856800643
6.4000000000000004,0.037139892578125,-0.022082912748280711
6.4050000000000002,0.0193634033203125,-0.0065438803987682391
6.4100000000000001,0.0105133056640625,0.0062907951373059202
6.415,0.028289794921875,0.014610546144497397
6.4199999999999999,0.0193634033203125,0.019994643074885715
6.4249999999999998,0.021881103515625,0.023054063499828723
6.4299999999999997,0.0511016845703125,0.025574132887331742
6.4350000000000005,0.0549163818359375,0.030352042496457336
6.4400000000000004,0.0384368896484375,0.036298458342920399
6.4450000000000003,-0.003448486328125,0.038445557979967473
6.4500000000000002,0.0066986083984375,0.034171288453268417
6.4550000000000001,-0.009857177734375,0.025767841422674805
6.46,-0.009857177734375,0.015824886254261251
6.4649999999999999,-0.0606689453125,0.0038517412492682663
6.4699999999999998,-0.1533660888671875,-0.01587486803095111
6.4750000000000005,-0.2562103271484375,-0.051415630796360287
6.4800000000000004,-0.3616485595703125,-0.1068048720764361
6.4850000000000003,-0.38323974609375,-0.17720355764574597
6.4900000000000002,-0.355316162109375,-0.24756156977753008
6.4950000000000001,-0.277801513671875,-0.29976043007204078
6.5,-0.120330810546875,-0.3176919339007227
6.5049999999999999,0.131134033203125,-0.28575625068833388
6.5099999999999998,0.311492919921875,-0.19640253653341536
6.5150000000000006,0.3445281982421875,-0.065533059291894624
6.5200000000000005,0.342010498046875,0.072857487240485241
6.5250000000000004,0.3204193115234375,0.18970581095387012
6.5300000000000002,0.2772369384765625,0.27029740346819636
6.5350000000000001,0.208648681640625,0.31004184870353679
6.54,0.2073516845703125,0.31398312224377528
6.5449999999999999,0.2111663818359375,0.29648089895386265
6.5499999999999998,0.1882781982421875,0.27089838966867297
6.5549999999999997,0.1895751953125,0.24418663123214904
6.5600000000000005,0.1590576171875,0.21950450205323266
6.5650000000000004,0.122283935546875,0.19592282863394203
6.5700000000000003,0.107025146484375,0.17172921446956865
6.5750000000000002,0.0663604736328125,0.14671881872222475
6.5800000000000001,0.0346221923828125,0.1200018894778286
6.585,0.048583984375,0.093215526312186214
6.5899999999999999,0.076507568359375,0.07245001390262415
6.5949999999999998,0.0625457763671875,0.061053762108976166
6.6000000000000005,0.037139892578125,0.05519632666640005
6.6050000000000004,0.035919189453125,0.050099370829500431
6.6100000000000003,0.021881103515625,0.044384707325460751
6.6150000000000002,0.0079193115234375,0.037425158270384201
6.6200000000000001,0.02569580078125,0.030021879458050585
6.625,-0.003448486328125,0.023418037151705543
6.6299999999999999,-0.0200042724609375,0.015793312352031602
6.6349999999999998,-0.0238189697265625,0.0060255203881300051
6.6400000000000006,-0.0301513671875,-0.004401665723688903
6.6450000000000005,-0.0390777587890625,-0.014401069605166952
6.6500000000000004,-0.0326690673828125,-0.023164984351606507
6.6550000000000002,-0.0352630615234375,-0.029644256887733669
6.6600000000000001,-0.017486572265625,-0.032927937634440428
6.665,-0.0467071533203125,-0.033861599510445817
6.6699999999999999,-0.06829833984375,-0.036339182312429108
6.6749999999999998,-0.080963134765625,-0.043043231443621634
6.6799999999999997,-0.08477783203125,-0.05292934779349176
6.6850000000000005,-0.0758514404296875,-0.06308060329020268
6.6900000000000004,-0.065704345703125,-0.070373368657619437
6.6950000000000003,-0.06829833984375,-0.07368624752695889
6.7000000000000002,-0.0796661376953125,-0.074726097707979333
6.7050000000000001,-0.10003662109375,-0.076564390647954894
6.71,-0.1063690185546875,-0.081152148567653293
6.7149999999999999,-0.0987396240234375,-0.08741758005154282
6.7199999999999998,-0.073333740234375,-0.091768159609656896
6.7250000000000005,-0.0784454345703125,-0.091914006804474951
6.7300000000000004,-0.06829833984375,-0.088796502767292701
6.7350000000000003,-0.0364837646484375,-0.082481247430309157
6.7400000000000002,0.0041046142578125,-0.070482789108061439
6.7450000000000001,0.013031005859375,-0.052279019686681388
6.75,0.0143280029296875,-0.03162666414747644
6.7549999999999999,0.0422515869140625,-0.011761364100412834
6.7599999999999998,0.099395751953125,0.0093234906878000394
6.7650000000000006,0.1489105224609375,0.035962105497253316
6.7700000000000005,0.1756134033203125,0.068853004737051443
6.7750000000000004,0.1806488037109375,0.10372978987097861
6.7800000000000002,0.193389892578125,0.13543174778533104
6.7850000000000001,0.170501708984375,0.16007437074673492
6.79,0.129913330078125,0.17330149998500149
6.7949999999999999,0.1260986328125,0.17349690234205309
6.7999999999999998,0.1515045166015625,0.16619473131668822
6.8049999999999997,0.1794281005859375,0.16000883598347626
6.8100000000000005,0.1553192138671875,0.15814956800527563
6.8150000000000004,0.0955810546875,0.15506923736761469
6.8200000000000003,0.0778045654296875,0.14451287223650267
6.8250000000000002,0.114654541015625,0.12953164231929326
6.8300000000000001,0.1133575439453125,0.11765867155207561
6.835,0.0739898681640625,0.10926945515058786
6.8399999999999999,0.0587310791015625,0.099745678555242495
6.8449999999999998,0.0384368896484375,0.087261167047062133
6.8500000000000005,0.0460662841796875,0.0733998891524867
6.8550000000000004,0.0346221923828125,0.060659054943465296
6.8600000000000003,0.0041046142578125,0.048708552907410683
6.8650000000000002,0.0002899169921875,0.035832361498789572
6.8700000000000001,0.0066986083984375,0.023412768274578968
6.875,0.0028839111328125,0.013748819740403057
6.8799999999999999,0.013031005859375,0.0076351829618685734
6.8849999999999998,0.0143280029296875,0.0052158267628200266
6.8900000000000006,-0.0047454833984375,0.0047676750995231526
6.8950000000000005,0.00921630859375,0.0043158089685113111
6.9000000000000004,0.0066986083984375,0.0042376225189806839
6.9050000000000002,-0.009857177734375,0.0040056861182610239
6.9100000000000001,-0.0123748779296875,0.0019811435935820163
6.915,-0.02130126953125,-0.0019592722534980912
6.9199999999999999,-0.026336669921875,-0.007286843312374656
6.9249999999999998,-0.0276336669921875,-0.013249759995930933
6.9299999999999997,-0.013671875,-0.018132702156747414
6.9350000000000005,-0.026336669921875,-0.020939381320756744
6.9400000000000004,-0.0517425537109375,-0.023903456467997696
6.9450000000000003,-0.0288543701171875,-0.028270403436544252
6.9500000000000002,-0.026336669921875,-0.031465606245021406
6.9550000000000001,-0.0326690673828125,-0.032498888738588652
6.96,-0.026336669921875,-0.032454222490687926
6.9649999999999999,-0.0288543701171875,-0.031711671139364475
6.9699999999999998,-0.0314483642578125,-0.030822745094099158
6.9750000000000005,-0.0390777587890625,-0.030733296239117542
6.9800000000000004,-0.017486572265625,-0.030881086515082069
6.9850000000000003,-0.00604248046875,-0.028950223025123747
6.9900000000000002,0.0015869140625,-0.023949477807598873
6.9950000000000001,-0.0009307861328125,-0.017245994776421004
7,-0.0301513671875,-0.012170391899767619
7.0049999999999999,-0.0314483642578125,-0.011703962217317876
7.0099999999999998,-0.0467071533203125,-0.015762028406268461
7.0150000000000006,-0.0631866455078125,-0.02352436576558084
7.0200000000000005,-0.0352630615234375,-0.032612354104598389
7.0250000000000004,-0.013671875,-0.037863190528120094
7.0300000000000002,-0.00726318359375,-0.03668205607561037
7.0350000000000001,0.013031005859375,-0.030032014237629003
7.04,-0.003448486328125,-0.020511579604734074
7.0449999999999999,-0.011077880859375,-0.012272437426469038
7.0499999999999998,-0.0123748779296875,-0.0077077733839676643
7.0549999999999997,-0.018707275390625,-0.0065563156163443194
7.0600000000000005,-0.014892578125,-0.0077640935160379829
7.0650000000000004,-0.0085601806640625,-0.0095573467846373078
7.0700000000000003,-0.009857177734375,-0.010607244124667212
7.0750000000000002,0.0015869140625,-0.010397419437151719
7.0800000000000001,0.0041046142578125,-0.0084945800140261134
7.085,-0.009857177734375,-0.0059940748257207976
7.0899999999999999,-0.0467071533203125,-0.0065330165260885425
7.0949999999999998,-0.0631866455078125,-0.013271568852240397
7.1000000000000005,-0.02130126953125,-0.023103884551049295
7.1050000000000004,-0.00726318359375,-0.028891551887501012
7.1100000000000003,-0.014892578125,-0.028746535006472021
7.1150000000000002,-0.0238189697265625,-0.026178614753679937
7.1200000000000001,-0.009857177734375,-0.023424388283717016
7.125,-0.0326690673828125,-0.021262742717312513
7.1299999999999999,-0.017486572265625,-0.020551646784875532
7.1349999999999998,-0.014892578125,-0.0202170616946728
7.1400000000000006,-0.0301513671875,-0.019893577625319292
7.1450000000000005,-0.0326690673828125,-0.021039556083379759
7.1500000000000004,-0.0250396728515625,-0.023281019801728989
7.1550000000000002,-0.0390777587890625,-0.025707478346331539
7.1600000000000001,-0.00604248046875,-0.027196441753137141
7.165,0.021881103515625,-0.024261062427003918
7.1699999999999999,-0.0200042724609375,-0.017523335009090767
7.1749999999999998,-0.0631866455078125,-0.014727271488192204
7.1799999999999997,-0.0796661376953125,-0.021062354224792475
7.1850000000000005,-0.0631866455078125,-0.033471560658011462
7.1900000000000004,-0.0402984619140625,-0.04476215740636752
7.1950000000000003,-0.013671875,-0.049318878502413496
7.2000000000000002,-0.002227783203125,-0.045682483515916056
7.2050000000000001,0.0079193115234375,-0.035935318234929445
7.21,-0.00604248046875,-0.02416135705875469
7.2149999999999999,-0.014892578125,-0.014791541484248428
7.2199999999999998,0.0066986083984375,-0.0087976842362052343
7.2250000000000005,0.028289794921875,-0.0029903442734467564
7.2300000000000004,0.0422515869140625,0.0052858556305815903
7.2350000000000003,0.0346221923828125,0.015181334876640527
7.2400000000000002,0.0434722900390625,0.024395648499222478
7.2450000000000001,0.020660400390625,0.03098689557267802
7.25,0.021881103515625,0.033431699027350256
7.2549999999999999,0.037139892578125,0.03315028634137248
7.2599999999999998,0.005401611328125,0.031580015493453628
7.2650000000000006,-0.0352630615234375,0.025565318703627767
7.2700000000000005,-0.013671875,0.014254701009877626
7.2750000000000004,-0.0009307861328125,0.0031305167534343616
7.2800000000000002,-0.0479278564453125,-0.0058457430136566856
7.2850000000000001,-0.139404296875,-0.020077585825072016
7.29,-0.28924560546875,-0.051788481699705936
7.2949999999999999,-0.390869140625,-0.1089772157199863
7.2999999999999998,-0.390869140625,-0.18443198809626074
7.3049999999999997,-0.3463897705078125,-0.25758292646892655
7.3100000000000005,-0.2664337158203125,-0.30831012874832792
7.3150000000000004,-0.0987396240234375,-0.32148353625112475
7.3200000000000003,0.173095703125,-0.28205584410241669
7.3250000000000002,0.358489990234375,-0.18266465917341826
7.3300000000000001,0.3953399658203125,-0.040777718181145561
7.335,0.3318634033203125,0.10485135045224099
7.3399999999999999,0.272125244140625,0.21853586816641074
7.3449999999999998,0.2454986572265625,0.28586349960672863
7.3500000000000005,0.2378692626953125,0.31240401569078247
7.3550000000000004,0.22894287109375,0.31164344357391555
7.3600000000000003,0.17431640625,0.2939006523944569
7.3650000000000002,0.138763427734375,0.26398787775997651
7.3700000000000001,0.142578125,0.22798519279017229
7.375,0.129913330078125,0.19375847528229564
7.3799999999999999,0.11846923828125,0.16520050359422839
7.3849999999999998,0.08795166015625,0.14165225941930881
7.3900000000000006,0.060028076171875,0.1202813887233217
7.3950000000000005,0.0816192626953125,0.10093676302833662
7.4000000000000004,0.0778045654296875,0.086686215774887637
7.4050000000000002,0.0434722900390625,0.076630885230146037
7.4100000000000001,0.0472869873046875,0.067326676207771954
7.415,0.0472869873046875,0.058876905643633369
7.4199999999999999,0.05621337890625,0.052994340332877969
7.4249999999999998,0.03973388671875,0.049523203725414855
7.4299999999999997,0.00921630859375,0.045362058723434906
7.4350000000000005,-0.009857177734375,0.037173618902526885
7.4400000000000004,-0.013671875,0.025171897821080917
7.4450000000000003,-0.0200042724609375,0.01198542551699432
7.4500000000000002,-0.0250396728515625,-0.0003429797803599921
7.4550000000000001,-0.0288543701171875,-0.010907138964541306
7.46,-0.0200042724609375,-0.018830224377027863
7.4649999999999999,-0.0238189697265625,-0.023527788367756569
7.4699999999999998,-0.0479278564453125,-0.026828046238299617
7.4750000000000005,-0.0708160400390625,-0.032288329284751151
7.4800000000000004,-0.0606689453125,-0.040559197294629999
7.4850000000000003,-0.0479278564453125,-0.048218041432841703
7.4900000000000002,-0.0517425537109375,-0.052694955926712125
7.4950000000000001,-0.0555572509765625,-0.054721013137671318
7.5,-0.0441131591796875,-0.055167846064065898
7.5049999999999999,-0.0593719482421875,-0.054579565470171981
7.5099999999999998,-0.0784454345703125,-0.055350545748854202
7.5150000000000006,-0.0872955322265625,-0.059519735303547747
7.5200000000000005,-0.0771484375,-0.065819209293060343
7.5250000000000004,-0.0987396240234375,-0.072472062652624958
7.5300000000000002,-0.105072021484375,-0.079887181680620409
7.5350000000000001,-0.0898895263671875,-0.087188795374891978
7.54,-0.0834808349609375,-0.091682928068180625
7.5449999999999999,-0.0771484375,-0.092383207755731028
7.5499999999999998,-0.0428924560546875,-0.088628218999945649
7.5549999999999997,-0.018707275390625,-0.078806561108669737
7.5600000000000005,-0.0123748779296875,-0.06370977721069071
7.5650000000000004,0.016845703125,-0.045756435334692029
7.5700000000000003,0.0968780517578125,-0.023030925846947124
7.5750000000000002,0.129913330078125,0.0081041671659188713
7.5800000000000001,0.122283935546875,0.044017957063003918
7.585,0.154022216796875,0.077939102767674906
7.5899999999999999,0.1806488037109375,0.10842553029052721
7.5949999999999998,0.1565399169921875,0.13440576861057207
7.6000000000000005,0.173095703125,0.15314345499308543
7.6050000000000004,0.2187957763671875,0.16738508958687731
7.6100000000000003,0.2060546875,0.18117997414574591
7.6150000000000002,0.1895751953125,0.19238206931509799
7.6200000000000001,0.1438751220703125,0.19602545411569589
7.625,0.099395751953125,0.18825047339244505
7.6299999999999999,0.0701751708984375,0.16873444446781485
7.6349999999999998,0.0613250732421875,0.14188908211832102
7.6400000000000006,0.0587310791015625,0.11410855807815305
7.6450000000000005,0.080322265625,0.091342810764429364
7.6500000000000004,0.1006927490234375,0.078056433981715578
7.6550000000000002,0.0930633544921875,0.074407362486844153
7.6600000000000001,0.0638427734375,0.075059202251686996
7.665,0.03973388671875,0.073545860399212737
7.6699999999999999,0.013031005859375,0.066442685619892639
7.6749999999999998,-0.002227783203125,0.05362128575746896
7.6799999999999997,-0.00604248046875,0.03753782819917266
7.6850000000000005,0.0117340087890625,0.022582074600275243
7.6900000000000004,0.0193634033203125,0.012756784897311645
7.6950000000000003,0.0549163818359375,0.010431853291624023
7.7000000000000002,0.021881103515625,0.014332929455042935
7.7050000000000001,-0.017486572265625,0.017352245031820087
7.71,-0.0467071533203125,0.012876575447340406
7.7149999999999999,-0.0326690673828125,0.0016761675064685313
7.7199999999999998,-0.017486572265625,-0.010117166837988691
7.7250000000000005,-0.0161895751953125,-0.017917691845047969
7.7300000000000004,-0.0250396728515625,-0.021903304724909291
7.7350000000000003,-0.0047454833984375,-0.023097744681818778
7.7400000000000002,-0.02252197265625,-0.022054962343146682
7.7450000000000001,-0.050445556640625,-0.022096389103334526
7.75,-0.0428924560546875,-0.02571135264478067
7.7549999999999999,-0.0314483642578125,-0.03048011856408982
7.7599999999999998,-0.013671875,-0.032711998768093921
7.7650000000000006,-0.011077880859375,-0.030996639738459161
7.7700000000000005,-0.013671875,-0.026716783454890272
7.7750000000000004,-0.018707275390625,-0.022317383690366004
7.7800000000000002,-0.0161895751953125,-0.01913910370184118
7.7850000000000001,-0.0288543701171875,-0.017732114308866766
7.79,-0.050445556640625,-0.019504289053652889
7.7949999999999999,-0.0618896484375,-0.025617268245241367
7.7999999999999998,-0.03778076171875,-0.033676824306771651
7.8050000000000006,-0.00726318359375,-0.0381022562347543
7.8100000000000005,-0.0047454833984375,-0.035879774655956473
7.8150000000000004,-0.0238189697265625,-0.030037647511731248
7.8200000000000003,-0.033966064453125,-0.02560511210855047
7.8250000000000002,-0.0123748779296875,-0.023503816041423084
7.8300000000000001,0.0002899169921875,-0.020828571570435602
7.835,-0.002227783203125,-0.016316313722547417
7.8399999999999999,-0.0200042724609375,-0.012201328325836884
7.8449999999999998,-0.03778076171875,-0.011617383650085003
7.8500000000000005,-0.0364837646484375,-0.015278153332795402
7.8550000000000004,-0.018707275390625,-0.020231348246137409
7.8600000000000003,-0.003448486328125,-0.022502303255622913
7.8650000000000002,0.0066986083984375,-0.020339050744450568
7.8700000000000001,0.005401611328125,-0.014813889502580023
7.875,-0.0276336669921875,-0.0098303817664499617
7.8799999999999999,-0.03778076171875,-0.009608749044283646
7.8849999999999998,-0.0161895751953125,-0.013234106103021542
7.8900000000000006,-0.033966064453125,-0.017378567357858296
7.8950000000000005,-0.049224853515625,-0.022361562605430381
7.9000000000000004,-0.049224853515625,-0.029065353288370177
7.9050000000000002,-0.0390777587890625,-0.035614232115406048
7.9100000000000001,-0.0352630615234375,-0.0397662906772904
7.915,-0.0301513671875,-0.040917522771101111
7.9199999999999999,-0.0390777587890625,-0.040144666370204238
7.9249999999999998,-0.041595458984375,-0.039272048173456767
7.9300000000000006,-0.02130126953125,-0.038219262798080023
7.9350000000000005,-0.026336669921875,-0.03574815962427183
7.9400000000000004,-0.050445556640625,-0.033676059219055095
7.9450000000000003,-0.017486572265625,-0.033118759692856811
7.9500000000000002,0.029510498046875,-0.029312506857121945
7.9550000000000001,0.0193634033203125,-0.019222263563853387
7.96,0.0041046142578125,-0.0073754647137825036
7.9649999999999999,0.0193634033203125,0.001977153731559305
7.9699999999999998,0.00921630859375,0.0086131028307824698
7.9750000000000005,0.020660400390625,0.012984092022540628
7.9800000000000004,0.02569580078125,0.016254641265959505
7.9850000000000003,0.016845703125,0.018964725167609539
7.9900000000000002,0.0002899169921875,0.019551083076543296
7.9950000000000001,0.0041046142578125,0.017224978972671258
8,0.0117340087890625,0.013835887094965247
8.0050000000000008,0.02569580078125,0.012073361406753427
8.0099999999999998,0.00921630859375,0.012315929116637788
8.0150000000000006,-0.009857177734375,0.011743596938282523
8.0199999999999996,-0.0670013427734375,0.0057199173043149393
8.0250000000000004,-0.144439697265625,-0.011597860695807354
8.0299999999999994,-0.24102783203125,-0.045511302968880264
8.0350000000000001,-0.3375396728515625,-0.098264948606639702
8.0400000000000009,-0.39849853515625,-0.16672241101987773
8.0449999999999999,-0.3604278564453125,-0.23859121873084527
8.0500000000000007,-0.2562103271484375,-0.2933678790524028
8.0549999999999997,-0.1342926025390625,-0.31263458968273694
8.0600000000000005,0.029510498046875,-0.28726899684324614
8.0649999999999995,0.2200927734375,-0.21510408042610432
8.0700000000000003,0.326751708984375,-0.10317836580241838
8.0749999999999993,0.3356781005859375,0.026693288430141335
8.0800000000000001,0.319122314453125,0.14640632328674713
8.0850000000000009,0.3204193115234375,0.23797703953717086
8.0899999999999999,0.26708984375,0.29570546339671033
8.0950000000000006,0.193389892578125,0.31787692116844346
8.0999999999999996,0.17431640625,0.30832988881842199
8.1050000000000004,0.170501708984375,0.27960932309400816
8.1099999999999994,0.1527252197265625,0.24470679134181794
8.1150000000000002,0.1171722412109375,0.20974813499973857
8.120000000000001,0.122283935546875,0.17734820341051682
8.125,0.0892486572265625,0.14949287634673136
8.1300000000000008,0.068878173828125,0.12526083786294157
8.1349999999999998,0.048583984375,0.10294260878595979
8.1400000000000006,0.0460662841796875,0.082755646883554274
8.1449999999999996,0.0587310791015625,0.066757662170895876
8.1500000000000004,0.05621337890625,0.056708138691721914
8.1549999999999994,0.021881103515625,0.050206699737787117
8.1600000000000001,0.016845703125,0.043133886943755466
8.1650000000000009,0.028289794921875,0.035564734558980522
8.1699999999999999,0.0193634033203125,0.029559981379744936
8.1750000000000007,0.0066986083984375,0.024552764918311053
8.1799999999999997,0.0028839111328125,0.019203847881268811
8.1850000000000005,0.0079193115234375,0.01396998361112705
8.1899999999999995,-0.0276336669921875,0.0084069764229945006
8.1950000000000003,-0.0402984619140625,7.6415250556693265e-05
8.1999999999999993,-0.0467071533203125,-0.011182314719321509
8.2050000000000001,-0.0441131591796875,-0.022859485081086605
8.2100000000000009,-0.0288543701171875,-0.031940091697336831
8.2149999999999999,-0.0428924560546875,-0.037188163203063437
8.2200000000000006,-0.0364837646484375,-0.039878579541184664
8.2249999999999996,-0.0555572509765625,-0.041750862284542473
8.2300000000000004,-0.064483642578125,-0.044751224446573104
8.2349999999999994,-0.06951904296875,-0.049688508869738572
8.2400000000000002,-0.0822601318359375,-0.056131476161334418
8.245000000000001,-0.0936279296875,-0.064058301820197144
8.25,-0.103851318359375,-0.073360418906753933
8.2550000000000008,-0.10125732421875,-0.082970425511520951
8.2599999999999998,-0.097442626953125,-0.091014861492807381
8.2650000000000006,-0.0924072265625,-0.096100997931450882
8.2699999999999996,-0.065704345703125,-0.09692126083223275
8.2750000000000004,-0.0670013427734375,-0.092855990789067228
8.2799999999999994,-0.096221923828125,-0.087373920462530064
8.2850000000000001,-0.0758514404296875,-0.084022743380406412
8.2900000000000009,-0.050445556640625,-0.08063447366576898
8.2949999999999999,-0.018707275390625,-0.07310527966819394
8.3000000000000007,0.0181427001953125,-0.059128606381880791
8.3049999999999997,0.07269287109375,-0.037179507026797703
8.3100000000000005,0.112060546875,-0.0068106240160674611
8.3149999999999995,0.11968994140625,0.028595985490571969
8.3200000000000003,0.1362457275390625,0.063230493240065244
8.3249999999999993,0.1412811279296875,0.093206009180261812
8.3300000000000001,0.178131103515625,0.11828716587834795
8.3350000000000009,0.1870574951171875,0.1403770551663302
8.3399999999999999,0.1717987060546875,0.15873923833883308
8.3450000000000006,0.1997222900390625,0.17217189253295773
8.3499999999999996,0.1882781982421875,0.18204593235736793
8.3550000000000004,0.1794281005859375,0.18817179422372809
8.3599999999999994,0.1679840087890625,0.1894514530509602
8.3650000000000002,0.142578125,0.18547539473605484
8.370000000000001,0.0930633544921875,0.17449202077884576
8.375,0.08795166015625,0.15611285251155965
8.3800000000000008,0.067657470703125,0.13379576224298917
8.3849999999999998,0.084136962890625,0.11231206604896578
8.3900000000000006,0.084136962890625,0.095786819556343966
8.3949999999999996,0.0549163818359375,0.084161787517413031
8.4000000000000004,0.029510498046875,0.073223860293720078
8.4049999999999994,0.0321044921875,0.061069833958528177
8.4100000000000001,0.0575103759765625,0.05079979499740659
8.4150000000000009,0.037139892578125,0.044875402622576069
8.4199999999999999,0.0434722900390625,0.041766153895806506
8.4250000000000007,0.0321044921875,0.039735273955863022
8.4299999999999997,0.005401611328125,0.036620940477246497
8.4350000000000005,-0.00726318359375,0.029976059708735524
8.4399999999999995,-0.02130126953125,0.01977302003400757
8.4450000000000003,-0.03778076171875,0.0070630898057629683
8.4499999999999993,-0.0314483642578125,-0.0064103665706196078
8.4550000000000001,-0.0238189697265625,-0.017597136298519472
8.4600000000000009,-0.00604248046875,-0.023778920333383961
8.4649999999999999,-0.0123748779296875,-0.024658528025695979
8.4700000000000006,-0.018707275390625,-0.022824462191879866
8.4749999999999996,-0.009857177734375,-0.02046231732412173
8.4800000000000004,-0.0441131591796875,-0.019332209879293141
8.4849999999999994,-0.05303955078125,-0.022180668978014302
8.4900000000000002,-0.041595458984375,-0.028336152223982742
8.495000000000001,-0.02252197265625,-0.033458239353220898
8.5,0.0066986083984375,-0.033491201954135193
8.5050000000000008,-0.0047454833984375,-0.027967234495402463
8.5099999999999998,-0.0288543701171875,-0.021549684610605295
8.5150000000000006,-0.0390777587890625,-0.019100805220984368
8.5199999999999996,-0.0250396728515625,-0.020463482298234553
8.5250000000000004,-0.02252197265625,-0.022509551383095759
8.5299999999999994,-0.03778076171875,-0.024338186744448202
8.5350000000000001,-0.0517425537109375,-0.02765822001377205
8.5400000000000009,-0.017486572265625,-0.031510895084680413
8.5449999999999999,0.00921630859375,-0.031166256832891266
8.5500000000000007,0.0066986083984375,-0.024893075520384514
8.5549999999999997,-0.011077880859375,-0.016682238380442194
8.5600000000000005,-0.0200042724609375,-0.011201620795504167
8.5649999999999995,-0.050445556640625,-0.01112303550427193
8.5700000000000003,-0.0428924560546875,-0.016587711909202645
8.5750000000000011,-0.013671875,-0.023129687720902899
8.5800000000000001,-0.0009307861328125,-0.025362116374197982
8.5850000000000009,0.013031005859375,-0.021895493703349762
8.5899999999999999,0.0079193115234375,-0.014625571085952768
8.5950000000000006,-0.011077880859375,-0.0075305529759078105
8.5999999999999996,-0.017486572265625,-0.0041149845218904505
8.6050000000000004,-0.0364837646484375,-0.0054833181527049069
8.6099999999999994,-0.0441131591796875,-0.011352290226399482
8.6150000000000002,-0.0441131591796875,-0.019932036485384778
8.620000000000001,-0.0288543701171875,-0.027909820316714264
8.625,-0.009857177734375,-0.031835227886611708
8.6300000000000008,0.0066986083984375,-0.029822869595448217
8.6349999999999998,-0.0301513671875,-0.024557664812552824
8.6400000000000006,-0.0314483642578125,-0.021360239983851243
8.6449999999999996,-0.0326690673828125,-0.021645721158306951
8.6500000000000004,-0.009857177734375,-0.022711564785527376
8.6549999999999994,0.005401611328125,-0.02121221370788301
8.6600000000000001,-0.0161895751953125,-0.017263795442849825
8.6650000000000009,-0.0467071533203125,-0.015535482689747982
8.6699999999999999,-0.06829833984375,-0.020025708159042518
8.6750000000000007,-0.0517425537109375,-0.029381881365302166
8.6799999999999997,-0.0390777587890625,-0.038289012723493485
8.6850000000000005,-0.0352630615234375,-0.043223464987180368
8.6899999999999995,-0.0250396728515625,-0.043885733482132733
8.6950000000000003,-0.0200042724609375,-0.040973165523938163
8.7000000000000011,-0.0250396728515625,-0.036135981849324754
8.7050000000000001,0.0002899169921875,-0.030308633081794975
8.7100000000000009,0.005401611328125,-0.022729094576248485
8.7149999999999999,0.0105133056640625,-0.013810504156618017
8.7200000000000006,0.0384368896484375,-0.0038834739476194518
8.7249999999999996,0.068878173828125,0.0089241655873060592
8.7300000000000004,0.0549163818359375,0.024237871289688098
8.7349999999999994,0.0498809814453125,0.037842149590264176
8.7400000000000002,0.005401611328125,0.044934770766155659
8.745000000000001,-0.0123748779296875,0.042359917120294591
8.75,0.016845703125,0.033161573203369432
8.7550000000000008,0.0143280029296875,0.024162849035694718
8.7599999999999998,-0.0161895751953125,0.016630684846630439
8.7650000000000006,-0.0276336669921875,0.0077499376585736298
8.7699999999999996,-0.0238189697265625,-0.0024430448353655893
8.7750000000000004,-0.0479278564453125,-0.012688683356352447
8.7799999999999994,-0.111480712890625,-0.026049821399820823
8.7850000000000001,-0.2092132568359375,-0.049962087087816243
8.7900000000000009,-0.331207275390625,-0.092227831301857202
8.7949999999999999,-0.385833740234375,-0.15400506454263016
8.8000000000000007,-0.3642425537109375,-0.22365050456957297
8.8049999999999997,-0.2803955078125,-0.28097406760526883
8.8100000000000005,-0.1800689697265625,-0.30829950869179501
8.8149999999999995,0.02447509765625,-0.29326872918602381
8.8200000000000003,0.26068115234375,-0.22578340201283167
8.8250000000000011,0.3254547119140625,-0.11073583602523751
8.8300000000000001,0.358489990234375,0.024870844810764264
8.8350000000000009,0.2937164306640625,0.14861358150738763
8.8399999999999999,0.2657928466796875,0.23794715314495821
8.8450000000000006,0.2378692626953125,0.28702078496429573
8.8499999999999996,0.201019287109375,0.3016742138956392
8.8550000000000004,0.1997222900390625,0.29194749988117252
8.8599999999999994,0.1590576171875,0.26832962055907722
8.8650000000000002,0.0892486572265625,0.23520592227063464
8.870000000000001,0.1045074462890625,0.19590652401240549
8.875,0.1248016357421875,0.15994527446762738
8.8800000000000008,0.1171722412109375,0.134485969079504
8.8849999999999998,0.1260986328125,0.11953366551769565
8.8900000000000006,0.07147216796875,0.11045954694330364
8.8949999999999996,0.02569580078125,0.099210823136029191
8.9000000000000004,0.021881103515625,0.082048808718190966
8.9049999999999994,0.020660400390625,0.062625406961180102
8.9100000000000001,0.0269927978515625,0.045677492918183335
8.9150000000000009,0.016845703125,0.033134238104300134
8.9199999999999999,0.0181427001953125,0.024487570581922229
8.9250000000000007,0.028289794921875,0.019472503416875182
8.9299999999999997,-0.0250396728515625,0.015704773982628907
8.9350000000000005,-0.0301513671875,0.0085576722908961289
8.9399999999999995,-0.0200042724609375,-0.0013963153383157985
8.9450000000000003,-0.011077880859375,-0.0097817958798680944
8.9500000000000011,-0.017486572265625,-0.014852475782679146
8.9550000000000001,-0.0352630615234375,-0.018356777681229067
8.9600000000000009,-0.05303955078125,-0.023199905599226758
8.9649999999999999,-0.0555572509765625,-0.030384126162804562
8.9700000000000006,-0.0517425537109375,-0.038270415292348217
8.9749999999999996,-0.05303955078125,-0.044870776557200454
8.9800000000000004,-0.049224853515625,-0.049388464429272916
8.9849999999999994,-0.0631866455078125,-0.05240018942791063
8.9900000000000002,-0.065704345703125,-0.055343850688143639
8.995000000000001,-0.0784454345703125,-0.059174995883577719
9,-0.06951904296875,-0.063615560307414665
9.0050000000000008,-0.0784454345703125,-0.067712418467950383
9.0099999999999998,-0.0872955322265625,-0.071704317367074999
9.0150000000000006,-0.10125732421875,-0.076780397120055577
9.0199999999999996,-0.1063690185546875,-0.083385263333182233
9.0250000000000004,-0.0796661376953125,-0.089407081864381399
9.0299999999999994,-0.0924072265625,-0.092390838079121254
9.0350000000000001,-0.0949249267578125,-0.093389686676572617
9.0400000000000009,-0.0618896484375,-0.092524103237595107
9.0449999999999999,-0.0467071533203125,-0.087269089347212031
9.0500000000000007,-0.02130126953125,-0.076728205044954867
9.0549999999999997,0.0321044921875,-0.060024606647639971
9.0600000000000005,0.0663604736328125,-0.03569266100590196
9.0649999999999995,0.0904693603515625,-0.0053624361089869878
9.0700000000000003,0.075286865234375,0.025425331276459236
9.0750000000000011,0.0892486572265625,0.051112420184926455
9.0800000000000001,0.13372802734375,0.072190649082318342
9.0850000000000009,0.1997222900390625,0.094905021380697951
9.0899999999999999,0.2200927734375,0.12331315845543525
9.0950000000000006,0.202239990234375,0.15337979191534273
9.0999999999999996,0.2060546875,0.17818252610023055
9.1050000000000004,0.173095703125,0.19382755021967746
9.1099999999999994,0.138763427734375,0.19763302227511248
9.1150000000000002,0.1209869384765625,0.18940530631109456
9.120000000000001,0.1324310302734375,0.17408176255990498
9.125,0.11083984375,0.15733578594836073
9.1300000000000008,0.1248016357421875,0.14216026628072329
9.1349999999999998,0.1006927490234375,0.12973735135165754
9.1400000000000006,0.0892486572265625,0.1188523401945186
9.1449999999999996,0.076507568359375,0.1079764407173264
9.1500000000000004,0.0638427734375,0.096824196673959778
9.1549999999999994,0.0613250732421875,0.085721520388686745
9.1600000000000001,0.048583984375,0.075287656696565536
9.1650000000000009,0.048583984375,0.065816370134529845
9.1699999999999999,0.0549163818359375,0.058270556369706107
9.1750000000000007,0.0231781005859375,0.0521842273413992
9.1799999999999997,-0.002227783203125,0.044130601556053015
9.1850000000000005,0.013031005859375,0.03349128115668186
9.1899999999999995,0.0143280029296875,0.02383917308032751
9.1950000000000003,-0.0161895751953125,0.015869414850528014
9.2000000000000011,-0.0390777587890625,0.006385992007589901
9.2050000000000001,-0.0402984619140625,-0.0056678104931615434
9.2100000000000009,-0.041595458984375,-0.017989835076127302
9.2149999999999999,-0.0238189697265625,-0.027525943138566527
9.2200000000000006,0.0066986083984375,-0.030944110933845623
9.2249999999999996,-0.014892578125,-0.028082972988568683
9.2300000000000004,-0.0250396728515625,-0.023713907015273279
9.2349999999999994,-0.0364837646484375,-0.021869619585264184
9.2400000000000002,-0.0517425537109375,-0.023835262708802769
9.245000000000001,-0.026336669921875,-0.02807570991267775
9.25,-0.0238189697265625,-0.030896186699909723
9.2550000000000008,-0.014892578125,-0.03068174812389882
9.2599999999999998,-0.009857177734375,-0.027842251582146364
9.2650000000000006,-0.0047454833984375,-0.023123497388659219
9.2699999999999996,-0.018707275390625,-0.018291407011315292
9.2750000000000004,-0.0479278564453125,-0.016695580300671684
9.2799999999999994,-0.041595458984375,-0.02003381495529297
9.2850000000000001,-0.013671875,-0.024658269246121474
9.2900000000000009,-0.017486572265625,-0.026369487905909528
9.2949999999999999,-0.02130126953125,-0.025571946558040105
9.3000000000000007,-0.018707275390625,-0.024096005370219338
9.3049999999999997,-0.0364837646484375,-0.023315479241498308
9.3100000000000005,-0.0402984619140625,-0.024717431260074463
9.3149999999999995,-0.0161895751953125,-0.026993887258864396
9.3200000000000003,-0.0085601806640625,-0.026880015305279399
9.3250000000000011,0.0028839111328125,-0.023267524881522783
9.3300000000000001,0.0041046142578125,-0.017136829744526856
9.3350000000000009,-0.017486572265625,-0.011254408068539105
9.3399999999999999,-0.02130126953125,-0.0086913034808416782
9.3450000000000006,-0.0085601806640625,-0.0089938708629159654
9.3499999999999996,-0.0250396728515625,-0.010410647624577683
9.3550000000000004,-0.0200042724609375,-0.012814368193259925
9.3599999999999994,0.0041046142578125,-0.014443386050268358
9.3650000000000002,0.005401611328125,-0.012874299827879038
9.370000000000001,-0.0276336669921875,-0.010314010890089067
9.375,-0.0555572509765625,-0.012014965578696373
9.3800000000000008,-0.05426025390625,-0.019538254217907752
9.3849999999999998,-0.0352630615234375,-0.028828911399286967
9.3900000000000006,-0.0200042724609375,-0.034757905335710618
9.3949999999999996,0.016845703125,-0.033955370076657471
9.4000000000000004,-0.0009307861328125,-0.026706510460414667
9.4049999999999994,-0.0441131591796875,-0.019557129344229714
9.4100000000000001,-0.05426025390625,-0.019048254935419097
9.4150000000000009,-0.05303955078125,-0.024771139144560812
9.4199999999999999,-0.0593719482421875,-0.033150452856710109
9.4250000000000007,-0.05426025390625,-0.041582144644815161
9.4299999999999997,-0.0200042724609375,-0.046723931471077583
9.4350000000000005,-0.0009307861328125,-0.045022616927625693
9.4399999999999995,-0.0047454833984375,-0.037105620322980946
9.4450000000000003,-0.014892578125,-0.02753274368794905
9.4500000000000011,0.0143280029296875,-0.018676129520697259
9.4550000000000001,0.035919189453125,-0.0085821355856408772
9.4600000000000009,0.016845703125,0.0027179847922068736
9.4649999999999999,-0.011077880859375,0.010474199747169899
9.4700000000000006,0.00921630859375,0.012536228689187381
9.4749999999999996,0.0460662841796875,0.013701492418523503
9.4800000000000004,0.0269927978515625,0.017666917976079381
9.4849999999999994,0.013031005859375,0.021573853041594683
9.4900000000000002,0.013031005859375,0.022563026399806393
9.495000000000001,-0.0009307861328125,0.020646514196575566
9.5,-0.0288543701171875,0.015078268423175424
9.5050000000000008,-0.0467071533203125,0.0046975540541918503
9.5099999999999998,-0.058074951171875,-0.0095942113918313834
9.5150000000000006,-0.1254425048828125,-0.028152461755760409
9.5199999999999996,-0.2130279541015625,-0.056164984401238911
9.5250000000000004,-0.3438720703125,-0.10088297199420257
9.5299999999999994,-0.3807220458984375,-0.16337780640095495
9.5350000000000001,-0.3299102783203125,-0.23017546230907279
9.5400000000000009,-0.268951416015625,-0.28096305031289409
9.5449999999999999,-0.1609954833984375,-0.30155647470069463
9.5500000000000007,0.0346221923828125,-0.28170325130295093
9.5549999999999997,0.2581634521484375,-0.21228037677675957
9.5600000000000005,0.3597869873046875,-0.096951955436967691
9.5649999999999995,0.3648223876953125,0.039592950819401257
9.5700000000000003,0.33056640625,0.16494850446338127
9.5750000000000011,0.264495849609375,0.25569324513602881
9.5800000000000001,0.255645751953125,0.3045866219818622
9.5850000000000009,0.2454986572265625,0.31954222809985361
9.5899999999999999,0.1946868896484375,0.31135859013234957
9.5950000000000006,0.1756134033203125,0.28726881775788221
9.5999999999999996,0.154022216796875,0.25470156493914919
9.6050000000000004,0.1083221435546875,0.21899432602584279
9.6099999999999994,0.091766357421875,0.18235551857995153
9.6150000000000002,0.0613250732421875,0.14697937665558058
9.620000000000001,0.084136962890625,0.11623207253330334
9.625,0.1057281494140625,0.095131437884589207
9.6300000000000008,0.0663604736328125,0.08389712697598592
9.6349999999999998,0.0434722900390625,0.075896194380938559
9.6400000000000006,0.037139892578125,0.066741893518111661
9.6449999999999996,0.035919189453125,0.05701313340630508
9.6500000000000004,0.0193634033203125,0.047628568524652644
9.6549999999999994,0.0079193115234375,0.038033244316948073
9.6600000000000001,-0.003448486328125,0.027760826077140803
9.6650000000000009,-0.017486572265625,0.016826572586030208
9.6699999999999999,-0.011077880859375,0.0060605107700933084
9.6750000000000007,-0.026336669921875,-0.0033964296619175514
9.6799999999999997,-0.0288543701171875,-0.011692797797572662
9.6850000000000005,-0.0314483642578125,-0.018943349779811561
9.6899999999999995,-0.0479278564453125,-0.025457338431453185
9.6950000000000003,-0.0301513671875,-0.031227129566710494
9.7000000000000011,-0.0238189697265625,-0.034394212602450833
9.7050000000000001,-0.05426025390625,-0.035696838953658973
9.7100000000000009,-0.0670013427734375,-0.038946399765618395
9.7149999999999999,-0.0784454345703125,-0.045661641040679254
9.7200000000000006,-0.058074951171875,-0.05354611708897164
9.7249999999999996,-0.0606689453125,-0.059318884737122282
9.7300000000000004,-0.0758514404296875,-0.062987855653936831
9.7349999999999994,-0.10003662109375,-0.067581291945138677
9.7400000000000002,-0.112701416015625,-0.075297835253585077
9.745000000000001,-0.0949249267578125,-0.084590592725676053
9.75,-0.0720367431640625,-0.090832038705871782
9.7550000000000008,-0.06951904296875,-0.09137314190869722
9.7599999999999998,-0.0758514404296875,-0.088014858170130411
9.7650000000000006,-0.08477783203125,-0.084238397235842588
9.7699999999999996,-0.073333740234375,-0.08154090082318094
9.7750000000000004,-0.0720367431640625,-0.079167898411194496
9.7799999999999994,-0.0441131591796875,-0.075456602177851412
9.7850000000000001,-0.0123748779296875,-0.067671644377774204
9.7900000000000009,-0.0238189697265625,-0.055631229608019805
9.7949999999999999,0.0002899169921875,-0.042199255806338813
9.8000000000000007,0.08673095703125,-0.024877343716995598
9.8049999999999997,0.1400604248046875,0.0027090562902368984
9.8100000000000005,0.1870574951171875,0.041329325086483952
9.8149999999999995,0.209869384765625,0.08609835231442621
9.8200000000000003,0.169281005859375,0.12803066220774603
9.8250000000000011,0.1400604248046875,0.15678971310748741
9.8300000000000001,0.162872314453125,0.17024710904320284
9.8350000000000009,0.18194580078125,0.17533231150538614
9.8399999999999999,0.21246337890625,0.17958158159663501
9.8450000000000006,0.1895751953125,0.18527530686036148
9.8499999999999996,0.1794281005859375,0.1894567664229094
9.8550000000000004,0.15020751953125,0.18878280339809866
9.8599999999999994,0.115875244140625,0.18109733901943892
9.8650000000000002,0.076507568359375,0.16504999040275209
9.870000000000001,0.0625457763671875,0.14199124121878082
9.875,0.0549163818359375,0.116282941254522
9.8800000000000008,0.0854339599609375,0.094075273429965287
9.8849999999999998,0.05621337890625,0.078802884245860211
9.8900000000000006,0.0384368896484375,0.067651294572551826
9.8949999999999996,0.044769287109375,0.057888140112600746
9.9000000000000004,0.0739898681640625,0.051721589109380642
9.9049999999999994,0.080322265625,0.051742034077954559
9.9100000000000001,0.037139892578125,0.054741713911964071
9.9150000000000009,0.016845703125,0.054024851364883955
9.9199999999999999,0.0105133056640625,0.047455807782473908
9.9250000000000007,0.0015869140625,0.037288509351236288
9.9299999999999997,0.005401611328125,0.026287961240231989
9.9350000000000005,-0.017486572265625,0.015791805205570376
9.9399999999999995,-0.0352630615234375,0.0047247128014421911
9.9450000000000003,-0.0352630615234375,-0.007276989554255397
9.9500000000000011,-0.0352630615234375,-0.018343765374096568
9.9550000000000001,-0.0301513671875,-0.026672799963504565
9.9600000000000009,-0.0200042724609375,-0.03117871930352719
9.9649999999999999,-0.00726318359375,-0.031213130469583288
9.9700000000000006,-0.014892578125,-0.027750364573143404
9.9749999999999996,-0.018707275390625,-0.023498743632198227
9.9800000000000004,-0.0326690673828125,-0.020991691932530913
9.9849999999999994,-0.018707275390625,-0.020625321470148492
9.9900000000000002,0.0041046142578125,-0.019682933351221572
9.995000000000001,-0.0009307861328125,-0.016114651260696389
10,-0.0250396728515625,-0.012437784514868142
10.005000000000001,-0.0390777587890625,-0.012490263541072907
10.01,-0.0441131591796875,-0.017006879536149794
10.015000000000001,-0.0467071533203125,-0.024117426195416167
10.02,-0.0441131591796875,-0.031543568091403067
10.025,-0.0314483642578125,-0.037050682916553307
10.029999999999999,-0.0390777587890625,-0.039661576688332999
10.035,-0.02130126953125,-0.039665896705268995
10.040000000000001,-0.013671875,-0.03674735172297372
10.045,-0.0238189697265625,-0.031873983768579375
10.050000000000001,-0.0123748779296875,-0.026994792173880146
10.055,-0.014892578125,-0.022541456702767915
10.06,-0.009857177734375,-0.018591387469054723
10.065,-0.0276336669921875,-0.016089349320987462
10.07,-0.033966064453125,-0.016461120476299676
10.075000000000001,-0.033966064453125,-0.019581975618258179
10.08,-0.0441131591796875,-0.024239209891111085
10.085000000000001,-0.0352630615234375,-0.029320604360352616
10.09,-0.03778076171875,-0.033440658374387471
10.095000000000001,-0.0428924560546875,-0.036387484135020964
10.1,-0.0390777587890625,-0.038625322883175009
10.105,-0.0276336669921875,-0.039457448380521828
10.109999999999999,-0.056854248046875,-0.039560823151194566
10.115,-0.0746307373046875,-0.04227483496973275
10.120000000000001,-0.04541015625,-0.047412103979701539
10.125,-0.026336669921875,-0.050037365684585368
10.130000000000001,-0.0314483642578125,-0.048070784259347882
10.135,-0.0276336669921875,-0.04362451615885974
10.140000000000001,0.0155487060546875,-0.036670938512809191
10.145,0.0002899169921875,-0.026311134824253478
10.15,0.0321044921875,-0.014135859639710292
10.154999999999999,0.037139892578125,-0.00085067886783956638
10.16,0.0079193115234375,0.011113139546361573
10.165000000000001,-0.013671875,0.016759701395887464
10.17,0.0015869140625,0.015621251553861855
10.175000000000001,0.0269927978515625,0.012939734637188364
10.18,0.0321044921875,0.013277896795794527
10.185,0.0308074951171875,0.016622583690736541
10.19,0.016845703125,0.020300793929003507
10.195,-0.009857177734375,0.0208844550844473
10.200000000000001,-0.0200042724609375,0.016262587347571324
10.205,-0.0288543701171875,0.0073571066509865498
10.210000000000001,-0.0606689453125,-0.0047641131860556522
10.215,-0.1368865966796875,-0.023089833961141341
10.220000000000001,-0.277801513671875,-0.056085848094410126
10.225,-0.3895721435546875,-0.11188178596126748
10.23,-0.4086456298828125,-0.186288051189302
10.234999999999999,-0.3451690673828125,-0.26010480369609479
10.24,-0.2676544189453125,-0.31145785479916421
10.245000000000001,-0.1241455078125,-0.32558655374914769
10.25,0.067657470703125,-0.29313597457152063
10.255000000000001,0.249237060546875,-0.21107179871403953
10.26,0.3610076904296875,-0.088992537126110244
10.265000000000001,0.3991546630859375,0.050688431407567028
10.27,0.3407135009765625,0.17923095726591748
10.275,0.3127899169921875,0.27365549835292025
10.279999999999999,0.2772369384765625,0.32696405045784077
10.285,0.2060546875,0.34236220103139187
10.290000000000001,0.21246337890625,0.32836216496005072
10.295,0.176910400390625,0.2981545290019102
10.300000000000001,0.115875244140625,0.25974966461569521
10.305,0.0968780517578125,0.21625222420462403
10.31,0.1057281494140625,0.17411651360203928
10.315,0.0854339599609375,0.1394296630897181
10.32,0.080322265625,0.11310696503457245
10.325000000000001,0.08795166015625,0.094699240345006749
10.33,0.0498809814453125,0.082292757213289741
10.335000000000001,0.0308074951171875,0.071086617206663705
10.34,0.0117340087890625,0.05814270646447911
10.345000000000001,0.037139892578125,0.045264978837154433
10.35,0.052398681640625,0.036964151551498459
10.355,0.02569580078125,0.033794026410900423
10.359999999999999,0.0041046142578125,0.030976388776478236
10.365,-0.0200042724609375,0.02451592052470521
10.370000000000001,-0.04541015625,0.013063563440252954
10.375,-0.04541015625,-0.0021868189736030108
10.380000000000001,-0.0250396728515625,-0.016723298322568546
10.385,-0.033966064453125,-0.026758631767597248
10.390000000000001,-0.0390777587890625,-0.032848120134166194
10.395,-0.0288543701171875,-0.036285107847030498
10.4,-0.014892578125,-0.036431827891841427
10.404999999999999,-0.0428924560546875,-0.03446517642773668
10.41,-0.073333740234375,-0.035165642025034666
10.415000000000001,-0.0708160400390625,-0.041032734844640831
10.42,-0.0720367431640625,-0.049586532336016696
10.425000000000001,-0.0708160400390625,-0.057823442878534984
10.43,-0.0593719482421875,-0.063800320620869544
10.435,-0.08477783203125,-0.06762262282313139
10.44,-0.10003662109375,-0.072199976919051917
10.445,-0.10125732421875,-0.078940191715325417
10.450000000000001,-0.0949249267578125,-0.086024791851972954
10.455,-0.096221923828125,-0.091503359661932265
10.460000000000001,-0.0822601318359375,-0.094364574389226699
10.465,-0.056854248046875,-0.093010219234247543
10.470000000000001,-0.06829833984375,-0.087372326147127616
10.475,-0.0708160400390625,-0.080668081358846871
10.48,-0.0364837646484375,-0.073852926268243108
10.484999999999999,0.0155487060546875,-0.062788980615993611
10.49,0.0308074951171875,-0.044588598324180329
10.495000000000001,0.0028839111328125,-0.023716877633271093
10.5,0.0638427734375,-0.0044430332722817864
10.505000000000001,0.1400604248046875,0.018340583963662446
10.51,0.17431640625,0.050070700710185032
10.515000000000001,0.154022216796875,0.086086175922209823
10.52,0.129913330078125,0.11615909647209932
10.525,0.1489105224609375,0.13547591824832267
10.529999999999999,0.185760498046875,0.14827879865461158
10.535,0.185760498046875,0.1597918494831875
10.540000000000001,0.193389892578125,0.1705979887117374
10.545,0.185760498046875,0.17941439117823033
10.550000000000001,0.1400604248046875,0.18316516616818909
10.555,0.129913330078125,0.17869596858457187
10.56,0.114654541015625,0.16726042675024022
10.565,0.0968780517578125,0.15181292405109392
10.57,0.0587310791015625,0.13313894745382285
10.575000000000001,0.0930633544921875,0.11356817934440051
10.58,0.1095428466796875,0.099335756946638543
10.585000000000001,0.0511016845703125,0.090763338423428416
10.59,0.037139892578125,0.081280577325619802
10.595000000000001,0.0472869873046875,0.069583868433719831
